3996.25459	-0.01387
3994.32589	-0.01366
3992.39720	-0.01353
3990.46851	-0.01356
3988.53981	-0.01373
3986.61112	-0.01391
3984.68242	-0.01401
3982.75373	-0.01400
3980.82503	-0.01391
3978.89634	-0.01374
3976.96765	-0.01350
3975.03895	-0.01329
3973.11026	-0.01322
3971.18156	-0.01332
3969.25287	-0.01349
3967.32417	-0.01358
3965.39548	-0.01348
3963.46679	-0.01322
3961.53809	-0.01298
3959.60940	-0.01289
3957.68070	-0.01289
3955.75201	-0.01273
3953.82331	-0.01221
3951.89462	-0.01142
3949.96593	-0.01068
3948.03723	-0.01026
3946.10854	-0.01021
3944.17984	-0.01044
3942.25115	-0.01097
3940.32245	-0.01166
3938.39376	-0.01207
3936.46507	-0.01172
3934.53637	-0.01068
3932.60768	-0.00962
3930.67898	-0.00915
3928.75029	-0.00920
3926.82159	-0.00926
3924.89290	-0.00910
3922.96421	-0.00882
3921.03551	-0.00864
3919.10682	-0.00878
3917.17812	-0.00954
3915.24943	-0.01087
3913.32073	-0.01218
3911.39204	-0.01258
3909.46334	-0.01144
3907.53465	-0.00867
3905.60596	-0.00492
3903.67726	-0.00176
3901.74857	-0.00108
3899.81987	-0.00297
3897.89118	-0.00551
3895.96248	-0.00706
3894.03379	-0.00734
3892.10510	-0.00696
3890.17640	-0.00653
3888.24771	-0.00605
3886.31901	-0.00525
3884.39032	-0.00434
3882.46162	-0.00414
3880.53293	-0.00494
3878.60424	-0.00589
3876.67554	-0.00582
3874.74685	-0.00435
3872.81815	-0.00218
3870.88946	-0.00058
3868.96076	-0.00015
3867.03207	-0.00048
3865.10338	-0.00120
3863.17468	-0.00240
3861.24599	-0.00359
3859.31729	-0.00363
3857.38860	-0.00166
3855.45990	0.00168
3853.53121	0.00333
3851.60252	0.00082
3849.67382	-0.00330
3847.74513	-0.00582
3845.81643	-0.00577
3843.88774	-0.00343
3841.95904	0.00019
3840.03035	0.00328
3838.10166	0.00409
3836.17296	0.00236
3834.24427	-0.00050
3832.31557	-0.00302
3830.38688	-0.00454
3828.45818	-0.00486
3826.52949	-0.00390
3824.60080	-0.00177
3822.67210	0.00085
3820.74341	0.00254
3818.81471	0.00189
3816.88602	-0.00107
3814.95732	-0.00479
3813.02863	-0.00751
3811.09994	-0.00830
3809.17124	-0.00715
3807.24255	-0.00466
3805.31385	-0.00178
3803.38516	0.00044
3801.45646	0.00110
3799.52777	-0.00030
3797.59908	-0.00330
3795.67038	-0.00677
3793.74169	-0.00969
3791.81299	-0.01148
3789.88430	-0.01197
3787.95560	-0.01143
3786.02691	-0.01039
3784.09822	-0.00934
3782.16952	-0.00859
3780.24083	-0.00852
3778.31213	-0.00925
3776.38344	-0.01015
3774.45474	-0.01027
3772.52605	-0.00918
3770.59736	-0.00747
3768.66866	-0.00631
3766.73997	-0.00621
3764.81127	-0.00648
3762.88258	-0.00611
3760.95388	-0.00487
3759.02519	-0.00313
3757.09650	-0.00103
3755.16780	0.00201
3753.23911	0.00666
3751.31041	0.01243
3749.38172	0.01773
3747.45302	0.02208
3745.52433	0.02691
3743.59564	0.03331
3741.66694	0.04139
3739.73825	0.05137
3737.80955	0.06361
3735.88086	0.07661
3733.95216	0.08628
3732.02347	0.09080
3730.09478	0.09268
3728.16608	0.09362
3726.23739	0.09245
3724.30869	0.08676
3722.38000	0.07544
3720.45130	0.06051
3718.52261	0.04617
3716.59392	0.03661
3714.66522	0.03480
3712.73653	0.04147
3710.80783	0.05255
3708.87914	0.06062
3706.95044	0.06303
3705.02175	0.06223
3703.09305	0.06024
3701.16436	0.05749
3699.23567	0.05439
3697.30697	0.05179
3695.37828	0.05015
3693.44958	0.04889
3691.52089	0.04614
3689.59219	0.03996
3687.66350	0.03139
3685.73481	0.02383
3683.80611	0.01908
3681.87742	0.01715
3679.94872	0.01747
3678.02003	0.01885
3676.09133	0.01923
3674.16264	0.01720
3672.23395	0.01318
3670.30525	0.00804
3668.37656	0.00244
3666.44786	-0.00255
3664.51917	-0.00591
3662.59047	-0.00726
3660.66178	-0.00689
3658.73309	-0.00541
3656.80439	-0.00336
3654.87570	-0.00063
3652.94700	0.00339
3651.01831	0.00847
3649.08961	0.01198
3647.16092	0.01151
3645.23223	0.00923
3643.30353	0.00860
3641.37484	0.01091
3639.44614	0.01601
3637.51745	0.02329
3635.58875	0.03203
3633.66006	0.04164
3631.73137	0.05142
3629.80267	0.05941
3627.87398	0.06261
3625.94528	0.06067
3624.01659	0.05612
3622.08789	0.05061
3620.15920	0.04419
3618.23051	0.03679
3616.30181	0.02941
3614.37312	0.02400
3612.44442	0.02252
3610.51573	0.02560
3608.58703	0.03147
3606.65834	0.03701
3604.72965	0.04069
3602.80095	0.04300
3600.87226	0.04465
3598.94356	0.04562
3597.01487	0.04548
3595.08617	0.04387
3593.15748	0.04098
3591.22879	0.03729
3589.30009	0.03296
3587.37140	0.02763
3585.44270	0.02138
3583.51401	0.01522
3581.58531	0.01013
3579.65662	0.00638
3577.72793	0.00374
3575.79923	0.00196
3573.87054	0.00118
3571.94184	0.00182
3570.01315	0.00384
3568.08445	0.00591
3566.15576	0.00586
3564.22707	0.00316
3562.29837	-0.00052
3560.36968	-0.00358
3558.44098	-0.00549
3556.51229	-0.00637
3554.58359	-0.00653
3552.65490	-0.00637
3550.72621	-0.00608
3548.79751	-0.00580
3546.86882	-0.00581
3544.94012	-0.00656
3543.01143	-0.00802
3541.08273	-0.00952
3539.15404	-0.01048
3537.22535	-0.01087
3535.29665	-0.01093
3533.36796	-0.01068
3531.43926	-0.01004
3529.51057	-0.00915
3527.58187	-0.00844
3525.65318	-0.00833
3523.72449	-0.00890
3521.79579	-0.00990
3519.86710	-0.01095
3517.93840	-0.01174
3516.00971	-0.01205
3514.08101	-0.01187
3512.15232	-0.01141
3510.22362	-0.01093
3508.29493	-0.01056
3506.36624	-0.01023
3504.43754	-0.01000
3502.50885	-0.01009
3500.58015	-0.01057
3498.65146	-0.01121
3496.72276	-0.01176
3494.79407	-0.01214
3492.86538	-0.01237
3490.93668	-0.01240
3489.00799	-0.01223
3487.07929	-0.01197
3485.15060	-0.01172
3483.22190	-0.01159
3481.29321	-0.01168
3479.36452	-0.01195
3477.43582	-0.01227
3475.50713	-0.01251
3473.57843	-0.01266
3471.64974	-0.01273
3469.72104	-0.01273
3467.79235	-0.01263
3465.86366	-0.01248
3463.93496	-0.01235
3462.00627	-0.01235
3460.07757	-0.01248
3458.14888	-0.01272
3456.22018	-0.01295
3454.29149	-0.01304
3452.36280	-0.01285
3450.43410	-0.01235
3448.50541	-0.01175
3446.57671	-0.01140
3444.64802	-0.01148
3442.71932	-0.01187
3440.79063	-0.01233
3438.86194	-0.01268
3436.93324	-0.01287
3435.00455	-0.01292
3433.07585	-0.01291
3431.14716	-0.01291
3429.21846	-0.01295
3427.28977	-0.01292
3425.36108	-0.01270
3423.43238	-0.01237
3421.50369	-0.01215
3419.57499	-0.01223
3417.64630	-0.01257
3415.71760	-0.01292
3413.78891	-0.01315
3411.86022	-0.01325
3409.93152	-0.01327
3408.00283	-0.01323
3406.07413	-0.01314
3404.14544	-0.01303
3402.21674	-0.01292
3400.28805	-0.01282
3398.35936	-0.01273
3396.43066	-0.01267
3394.50197	-0.01265
3392.57327	-0.01271
3390.64458	-0.01282
3388.71588	-0.01292
3386.78719	-0.01298
3384.85850	-0.01301
3382.92980	-0.01306
3381.00111	-0.01313
3379.07241	-0.01320
3377.14372	-0.01325
3375.21502	-0.01327
3373.28633	-0.01323
3371.35764	-0.01310
3369.42894	-0.01293
3367.50025	-0.01280
3365.57155	-0.01276
3363.64286	-0.01280
3361.71416	-0.01288
3359.78547	-0.01296
3357.85678	-0.01305
3355.92808	-0.01312
3353.99939	-0.01319
3352.07069	-0.01324
3350.14200	-0.01328
3348.21330	-0.01331
3346.28461	-0.01333
3344.35592	-0.01332
3342.42722	-0.01327
3340.49853	-0.01319
3338.56983	-0.01310
3336.64114	-0.01305
3334.71244	-0.01308
3332.78375	-0.01316
3330.85506	-0.01324
3328.92636	-0.01328
3326.99767	-0.01329
3325.06897	-0.01330
3323.14028	-0.01333
3321.21158	-0.01338
3319.28289	-0.01341
3317.35420	-0.01339
3315.42550	-0.01331
3313.49681	-0.01318
3311.56811	-0.01307
3309.63942	-0.01301
3307.71072	-0.01305
3305.78203	-0.01315
3303.85333	-0.01325
3301.92464	-0.01330
3299.99595	-0.01331
3298.06725	-0.01326
3296.13856	-0.01319
3294.20986	-0.01311
3292.28117	-0.01306
3290.35247	-0.01308
3288.42378	-0.01317
3286.49509	-0.01327
3284.56639	-0.01332
3282.63770	-0.01330
3280.70900	-0.01319
3278.78031	-0.01302
3276.85161	-0.01285
3274.92292	-0.01276
3272.99423	-0.01278
3271.06553	-0.01289
3269.13684	-0.01301
3267.20814	-0.01309
3265.27945	-0.01312
3263.35075	-0.01314
3261.42206	-0.01313
3259.49337	-0.01308
3257.56467	-0.01300
3255.63598	-0.01295
3253.70728	-0.01298
3251.77859	-0.01307
3249.84989	-0.01313
3247.92120	-0.01312
3245.99251	-0.01306
3244.06381	-0.01305
3242.13512	-0.01310
3240.20642	-0.01318
3238.27773	-0.01324
3236.34903	-0.01325
3234.42034	-0.01322
3232.49165	-0.01314
3230.56295	-0.01305
3228.63426	-0.01301
3226.70556	-0.01303
3224.77687	-0.01307
3222.84817	-0.01308
3220.91948	-0.01306
3218.99079	-0.01304
3217.06209	-0.01303
3215.13340	-0.01301
3213.20470	-0.01300
3211.27601	-0.01301
3209.34731	-0.01307
3207.41862	-0.01318
3205.48993	-0.01329
3203.56123	-0.01335
3201.63254	-0.01330
3199.70384	-0.01319
3197.77515	-0.01313
3195.84645	-0.01319
3193.91776	-0.01334
3191.98907	-0.01347
3190.06037	-0.01350
3188.13168	-0.01347
3186.20298	-0.01342
3184.27429	-0.01338
3182.34559	-0.01334
3180.41690	-0.01328
3178.48821	-0.01325
3176.55951	-0.01329
3174.63082	-0.01339
3172.70212	-0.01349
3170.77343	-0.01354
3168.84473	-0.01356
3166.91604	-0.01358
3164.98735	-0.01361
3163.05865	-0.01363
3161.12996	-0.01364
3159.20126	-0.01362
3157.27257	-0.01358
3155.34387	-0.01355
3153.41518	-0.01353
3151.48649	-0.01354
3149.55779	-0.01358
3147.62910	-0.01365
3145.70040	-0.01371
3143.77171	-0.01375
3141.84301	-0.01376
3139.91432	-0.01373
3137.98563	-0.01363
3136.05693	-0.01349
3134.12824	-0.01338
3132.19954	-0.01336
3130.27085	-0.01341
3128.34215	-0.01345
3126.41346	-0.01341
3124.48477	-0.01331
3122.55607	-0.01319
3120.62738	-0.01307
3118.69868	-0.01300
3116.76999	-0.01302
3114.84129	-0.01312
3112.91260	-0.01327
3110.98390	-0.01339
3109.05521	-0.01345
3107.12652	-0.01345
3105.19782	-0.01341
3103.26913	-0.01334
3101.34043	-0.01329
3099.41174	-0.01329
3097.48304	-0.01334
3095.55435	-0.01342
3093.62566	-0.01352
3091.69696	-0.01360
3089.76827	-0.01364
3087.83957	-0.01363
3085.91088	-0.01357
3083.98218	-0.01349
3082.05349	-0.01343
3080.12480	-0.01342
3078.19610	-0.01348
3076.26741	-0.01357
3074.33871	-0.01364
3072.41002	-0.01363
3070.48132	-0.01353
3068.55263	-0.01338
3066.62394	-0.01328
3064.69524	-0.01328
3062.76655	-0.01336
3060.83785	-0.01343
3058.90916	-0.01343
3056.98046	-0.01340
3055.05177	-0.01341
3053.12308	-0.01346
3051.19438	-0.01348
3049.26569	-0.01348
3047.33699	-0.01347
3045.40830	-0.01348
3043.47960	-0.01347
3041.55091	-0.01342
3039.62222	-0.01332
3037.69352	-0.01316
3035.76483	-0.01292
3033.83613	-0.01263
3031.90744	-0.01239
3029.97874	-0.01225
3028.05005	-0.01219
3026.12136	-0.01212
3024.19266	-0.01201
3022.26397	-0.01182
3020.33527	-0.01156
3018.40658	-0.01119
3016.47788	-0.01072
3014.54919	-0.01023
3012.62050	-0.00980
3010.69180	-0.00948
3008.76311	-0.00924
3006.83441	-0.00901
3004.90572	-0.00877
3002.97702	-0.00852
3001.04833	-0.00824
2999.11964	-0.00793
2997.19094	-0.00757
2995.26225	-0.00716
2993.33355	-0.00669
2991.40486	-0.00621
2989.47616	-0.00583
2987.54747	-0.00565
2985.61878	-0.00568
2983.69008	-0.00580
2981.76139	-0.00587
2979.83269	-0.00588
2977.90400	-0.00583
2975.97530	-0.00577
2974.04661	-0.00573
2972.11792	-0.00577
2970.18922	-0.00589
2968.26053	-0.00609
2966.33183	-0.00634
2964.40314	-0.00660
2962.47444	-0.00684
2960.54575	-0.00705
2958.61706	-0.00722
2956.68836	-0.00740
2954.75967	-0.00760
2952.83097	-0.00785
2950.90228	-0.00807
2948.97358	-0.00823
2947.04489	-0.00830
2945.11620	-0.00833
2943.18750	-0.00835
2941.25881	-0.00837
2939.33011	-0.00839
2937.40142	-0.00839
2935.47272	-0.00838
2933.54403	-0.00835
2931.61534	-0.00831
2929.68664	-0.00827
2927.75795	-0.00822
2925.82925	-0.00817
2923.90056	-0.00809
2921.97186	-0.00801
2920.04317	-0.00793
2918.11448	-0.00787
2916.18578	-0.00782
2914.25709	-0.00776
2912.32839	-0.00767
2910.39970	-0.00758
2908.47100	-0.00750
2906.54231	-0.00741
2904.61361	-0.00729
2902.68492	-0.00721
2900.75623	-0.00722
2898.82753	-0.00736
2896.89884	-0.00755
2894.97014	-0.00771
2893.04145	-0.00782
2891.11275	-0.00792
2889.18406	-0.00802
2887.25537	-0.00811
2885.32667	-0.00821
2883.39798	-0.00835
2881.46928	-0.00856
2879.54059	-0.00882
2877.61189	-0.00908
2875.68320	-0.00930
2873.75451	-0.00947
2871.82581	-0.00963
2869.89712	-0.00980
2867.96842	-0.00999
2866.03973	-0.01020
2864.11103	-0.01041
2862.18234	-0.01062
2860.25365	-0.01084
2858.32495	-0.01106
2856.39626	-0.01126
2854.46756	-0.01143
2852.53887	-0.01160
2850.61017	-0.01176
2848.68148	-0.01192
2846.75279	-0.01206
2844.82409	-0.01220
2842.89540	-0.01232
2840.96670	-0.01244
2839.03801	-0.01256
2837.10931	-0.01268
2835.18062	-0.01278
2833.25193	-0.01286
2831.32323	-0.01291
2829.39454	-0.01295
2827.46584	-0.01299
2825.53715	-0.01304
2823.60845	-0.01310
2821.67976	-0.01314
2819.75107	-0.01315
2817.82237	-0.01316
2815.89368	-0.01317
2813.96498	-0.01321
2812.03629	-0.01323
2810.10759	-0.01324
2808.17890	-0.01324
2806.25021	-0.01323
2804.32151	-0.01323
2802.39282	-0.01324
2800.46412	-0.01328
2798.53543	-0.01333
2796.60673	-0.01339
2794.67804	-0.01343
2792.74935	-0.01345
2790.82065	-0.01346
2788.89196	-0.01347
2786.96326	-0.01347
2785.03457	-0.01347
2783.10587	-0.01348
2781.17718	-0.01349
2779.24849	-0.01349
2777.31979	-0.01350
2775.39110	-0.01353
2773.46240	-0.01356
2771.53371	-0.01359
2769.60501	-0.01359
2767.67632	-0.01358
2765.74763	-0.01356
2763.81893	-0.01354
2761.89024	-0.01354
2759.96154	-0.01355
2758.03285	-0.01356
2756.10415	-0.01359
2754.17546	-0.01361
2752.24677	-0.01362
2750.31807	-0.01361
2748.38938	-0.01361
2746.46068	-0.01361
2744.53199	-0.01361
2742.60329	-0.01361
2740.67460	-0.01361
2738.74591	-0.01361
2736.81721	-0.01363
2734.88852	-0.01368
2732.95982	-0.01373
2731.03113	-0.01378
2729.10243	-0.01382
2727.17374	-0.01384
2725.24505	-0.01384
2723.31635	-0.01381
2721.38766	-0.01379
2719.45896	-0.01377
2717.53027	-0.01378
2715.60157	-0.01380
2713.67288	-0.01381
2711.74419	-0.01381
2709.81549	-0.01378
2707.88680	-0.01375
2705.95810	-0.01374
2704.02941	-0.01376
2702.10071	-0.01381
2700.17202	-0.01385
2698.24332	-0.01386
2696.31463	-0.01385
2694.38594	-0.01384
2692.45724	-0.01383
2690.52855	-0.01384
2688.59985	-0.01387
2686.67116	-0.01389
2684.74246	-0.01389
2682.81377	-0.01387
2680.88508	-0.01385
2678.95638	-0.01386
2677.02769	-0.01391
2675.09899	-0.01396
2673.17030	-0.01398
2671.24160	-0.01398
2669.31291	-0.01396
2667.38422	-0.01395
2665.45552	-0.01395
2663.52683	-0.01395
2661.59813	-0.01396
2659.66944	-0.01396
2657.74074	-0.01394
2655.81205	-0.01391
2653.88336	-0.01388
2651.95466	-0.01386
2650.02597	-0.01386
2648.09727	-0.01387
2646.16858	-0.01389
2644.23988	-0.01389
2642.31119	-0.01389
2640.38250	-0.01389
2638.45380	-0.01388
2636.52511	-0.01389
2634.59641	-0.01391
2632.66772	-0.01394
2630.73902	-0.01399
2628.81033	-0.01403
2626.88164	-0.01405
2624.95294	-0.01405
2623.02425	-0.01404
2621.09555	-0.01402
2619.16686	-0.01398
2617.23816	-0.01394
2615.30947	-0.01392
2613.38078	-0.01392
2611.45208	-0.01394
2609.52339	-0.01397
2607.59469	-0.01399
2605.66600	-0.01399
2603.73730	-0.01399
2601.80861	-0.01400
2599.87992	-0.01402
2597.95122	-0.01404
2596.02253	-0.01404
2594.09383	-0.01404
2592.16514	-0.01403
2590.23644	-0.01401
2588.30775	-0.01398
2586.37906	-0.01396
2584.45036	-0.01395
2582.52167	-0.01396
2580.59297	-0.01398
2578.66428	-0.01399
2576.73558	-0.01402
2574.80689	-0.01404
2572.87820	-0.01405
2570.94950	-0.01407
2569.02081	-0.01407
2567.09211	-0.01405
2565.16342	-0.01402
2563.23472	-0.01398
2561.30603	-0.01396
2559.37734	-0.01397
2557.44864	-0.01398
2555.51995	-0.01399
2553.59125	-0.01399
2551.66256	-0.01400
2549.73386	-0.01401
2547.80517	-0.01401
2545.87648	-0.01400
2543.94778	-0.01399
2542.01909	-0.01399
2540.09039	-0.01401
2538.16170	-0.01403
2536.23300	-0.01401
2534.30431	-0.01398
2532.37562	-0.01395
2530.44692	-0.01394
2528.51823	-0.01396
2526.58953	-0.01400
2524.66084	-0.01404
2522.73214	-0.01407
2520.80345	-0.01408
2518.87476	-0.01406
2516.94606	-0.01403
2515.01737	-0.01402
2513.08867	-0.01403
2511.15998	-0.01406
2509.23128	-0.01409
2507.30259	-0.01411
2505.37389	-0.01412
2503.44520	-0.01412
2501.51651	-0.01411
2499.58781	-0.01409
2497.65912	-0.01405
2495.73042	-0.01401
2493.80173	-0.01398
2491.87303	-0.01395
2489.94434	-0.01395
2488.01565	-0.01396
2486.08695	-0.01396
2484.15826	-0.01397
2482.22956	-0.01398
2480.30087	-0.01398
2478.37217	-0.01398
2476.44348	-0.01398
2474.51479	-0.01399
2472.58609	-0.01401
2470.65740	-0.01403
2468.72870	-0.01404
2466.80001	-0.01403
2464.87131	-0.01403
2462.94262	-0.01402
2461.01393	-0.01402
2459.08523	-0.01401
2457.15654	-0.01399
2455.22784	-0.01395
2453.29915	-0.01390
2451.37045	-0.01387
2449.44176	-0.01386
2447.51307	-0.01388
2445.58437	-0.01388
2443.65568	-0.01387
2441.72698	-0.01383
2439.79829	-0.01379
2437.86959	-0.01376
2435.94090	-0.01374
2434.01221	-0.01373
2432.08351	-0.01372
2430.15482	-0.01370
2428.22612	-0.01368
2426.29743	-0.01367
2424.36873	-0.01368
2422.44004	-0.01371
2420.51135	-0.01375
2418.58265	-0.01377
2416.65396	-0.01378
2414.72526	-0.01377
2412.79657	-0.01375
2410.86787	-0.01372
2408.93918	-0.01368
2407.01049	-0.01364
2405.08179	-0.01359
2403.15310	-0.01354
2401.22440	-0.01348
2399.29571	-0.01339
2397.36701	-0.01321
2395.43832	-0.01273
2393.50963	-0.01118
2391.58093	-0.00692
2389.65224	0.00265
2387.72354	0.02058
2385.79485	0.04943
2383.86615	0.09085
2381.93746	0.14595
2380.00877	0.21618
2378.08007	0.30404
2376.15138	0.41304
2374.22268	0.54727
2372.29399	0.71099
2370.36529	0.90942
2368.43660	1.15219
2366.50791	1.46441
2364.57921	1.94204
2362.65052	6.00000
2360.72182	6.00000
2358.79313	2.63774
2356.86443	1.62684
2354.93574	1.22195
2353.00705	1.00027
2351.07835	0.88758
2349.14966	0.84838
2347.22096	0.86945
2345.29227	0.95227
2343.36357	1.09270
2341.43488	1.23577
2339.50619	1.29315
2337.57749	1.27221
2335.64880	1.22588
2333.72010	1.17340
2331.79141	1.11868
2329.86271	1.05841
2327.93402	0.98414
2326.00533	0.89411
2324.07663	0.79787
2322.14794	0.70760
2320.21924	0.62970
2318.29055	0.56434
2316.36185	0.50964
2314.43316	0.46360
2312.50447	0.42257
2310.57577	0.38124
2308.64708	0.33708
2306.71838	0.29335
2304.78969	0.25538
2302.86099	0.22543
2300.93230	0.20176
2299.00360	0.18111
2297.07491	0.16105
2295.14622	0.14049
2293.21752	0.11919
2291.28883	0.09742
2289.36013	0.07598
2287.43144	0.05631
2285.50274	0.04047
2283.57405	0.03045
2281.64536	0.02681
2279.71666	0.02800
2277.78797	0.03120
2275.85927	0.03399
2273.93058	0.03536
2272.00188	0.03546
2270.07319	0.03469
2268.14450	0.03335
2266.21580	0.03147
2264.28711	0.02903
2262.35841	0.02606
2260.42972	0.02269
2258.50102	0.01908
2256.57233	0.01539
2254.64364	0.01172
2252.71494	0.00814
2250.78625	0.00474
2248.85755	0.00161
2246.92886	-0.00117
2245.00016	-0.00357
2243.07147	-0.00562
2241.14278	-0.00732
2239.21408	-0.00872
2237.28539	-0.00987
2235.35669	-0.01080
2233.42800	-0.01154
2231.49930	-0.01211
2229.57061	-0.01256
2227.64192	-0.01292
2225.71322	-0.01320
2223.78453	-0.01344
2221.85583	-0.01361
2219.92714	-0.01372
2217.99844	-0.01377
2216.06975	-0.01378
2214.14106	-0.01378
2212.21236	-0.01379
2210.28367	-0.01382
2208.35497	-0.01386
2206.42628	-0.01388
2204.49758	-0.01390
2202.56889	-0.01391
2200.64020	-0.01390
2198.71150	-0.01389
2196.78281	-0.01390
2194.85411	-0.01391
2192.92542	-0.01393
2190.99672	-0.01395
2189.06803	-0.01395
2187.13934	-0.01394
2185.21064	-0.01394
2183.28195	-0.01395
2181.35325	-0.01396
2179.42456	-0.01396
2177.49586	-0.01395
2175.56717	-0.01395
2173.63848	-0.01395
2171.70978	-0.01395
2169.78109	-0.01395
2167.85239	-0.01394
2165.92370	-0.01391
2163.99500	-0.01388
2162.06631	-0.01386
2160.13762	-0.01387
2158.20892	-0.01389
2156.28023	-0.01393
2154.35153	-0.01397
2152.42284	-0.01399
2150.49414	-0.01399
2148.56545	-0.01398
2146.63676	-0.01397
2144.70806	-0.01397
2142.77937	-0.01397
2140.85067	-0.01394
2138.92198	-0.01390
2136.99328	-0.01385
2135.06459	-0.01382
2133.13590	-0.01381
2131.20720	-0.01381
2129.27851	-0.01382
2127.34981	-0.01383
2125.42112	-0.01386
2123.49242	-0.01388
2121.56373	-0.01388
2119.63504	-0.01386
2117.70634	-0.01382
2115.77765	-0.01380
2113.84895	-0.01380
2111.92026	-0.01382
2109.99156	-0.01385
2108.06287	-0.01386
2106.13417	-0.01387
2104.20548	-0.01388
2102.27679	-0.01389
2100.34809	-0.01388
2098.41940	-0.01386
2096.49070	-0.01380
2094.56201	-0.01372
2092.63331	-0.01365
2090.70462	-0.01363
2088.77593	-0.01366
2086.84723	-0.01372
2084.91854	-0.01374
2082.98984	-0.01364
2081.06115	-0.01339
2079.13245	-0.01311
2077.20376	-0.01300
2075.27507	-0.01313
2073.34637	-0.01338
2071.41768	-0.01354
2069.48898	-0.01352
2067.56029	-0.01337
2065.63159	-0.01324
2063.70290	-0.01322
2061.77421	-0.01329
2059.84551	-0.01339
2057.91682	-0.01346
2055.98812	-0.01351
2054.05943	-0.01357
2052.13073	-0.01364
2050.20204	-0.01370
2048.27335	-0.01371
2046.34465	-0.01363
2044.41596	-0.01350
2042.48726	-0.01340
2040.55857	-0.01342
2038.62987	-0.01354
2036.70118	-0.01369
2034.77249	-0.01380
2032.84379	-0.01386
2030.91510	-0.01388
2028.98640	-0.01388
2027.05771	-0.01386
2025.12901	-0.01380
2023.20032	-0.01364
2021.27163	-0.01336
2019.34293	-0.01305
2017.41424	-0.01293
2015.48554	-0.01307
2013.55685	-0.01338
2011.62815	-0.01365
2009.69946	-0.01379
2007.77077	-0.01384
2005.84207	-0.01387
2003.91338	-0.01389
2001.98468	-0.01387
2000.05599	-0.01380
1998.12729	-0.01360
1996.19860	-0.01319
1994.26991	-0.01262
1992.34121	-0.01219
1990.41252	-0.01218
1988.48382	-0.01261
1986.55513	-0.01318
1984.62643	-0.01362
1982.69774	-0.01386
1980.76905	-0.01395
1978.84035	-0.01396
1976.91166	-0.01395
1974.98296	-0.01388
1973.05427	-0.01366
1971.12557	-0.01324
1969.19688	-0.01276
1967.26819	-0.01251
1965.33949	-0.01265
1963.41080	-0.01305
1961.48210	-0.01340
1959.55341	-0.01355
1957.62471	-0.01356
1955.69602	-0.01354
1953.76733	-0.01356
1951.83863	-0.01353
1949.90994	-0.01330
1947.98124	-0.01271
1946.05255	-0.01188
1944.12385	-0.01124
1942.19516	-0.01126
1940.26647	-0.01194
1938.33777	-0.01277
1936.40908	-0.01331
1934.48038	-0.01350
1932.55169	-0.01355
1930.62299	-0.01353
1928.69430	-0.01330
1926.76561	-0.01269
1924.83691	-0.01179
1922.90822	-0.01093
1920.97952	-0.01046
1919.05083	-0.01056
1917.12213	-0.01114
1915.19344	-0.01182
1913.26475	-0.01216
1911.33605	-0.01209
1909.40736	-0.01197
1907.47866	-0.01216
1905.54997	-0.01266
1903.62127	-0.01315
1901.69258	-0.01338
1899.76388	-0.01326
1897.83519	-0.01289
1895.90650	-0.01238
1893.97780	-0.01183
1892.04911	-0.01137
1890.12041	-0.01120
1888.19172	-0.01150
1886.26302	-0.01217
1884.33433	-0.01287
1882.40564	-0.01334
1880.47694	-0.01356
1878.54825	-0.01363
1876.61955	-0.01347
1874.69086	-0.01272
1872.76216	-0.01113
1870.83347	-0.00904
1868.90478	-0.00769
1866.97608	-0.00812
1865.04739	-0.00990
1863.11869	-0.01168
1861.19000	-0.01273
1859.26130	-0.01316
1857.33261	-0.01335
1855.40392	-0.01345
1853.47522	-0.01329
1851.54653	-0.01262
1849.61783	-0.01128
1847.68914	-0.00947
1845.76044	-0.00805
1843.83175	-0.00797
1841.90306	-0.00917
1839.97436	-0.01064
1838.04567	-0.01156
1836.11697	-0.01161
1834.18828	-0.01076
1832.25958	-0.00922
1830.33089	-0.00765
1828.40220	-0.00696
1826.47350	-0.00759
1824.54481	-0.00910
1822.61611	-0.01072
1820.68742	-0.01193
1818.75872	-0.01253
1816.83003	-0.01248
1814.90134	-0.01186
1812.97264	-0.01096
1811.04395	-0.01032
1809.11525	-0.01028
1807.18656	-0.01051
1805.25786	-0.01030
1803.32917	-0.00940
1801.40048	-0.00825
1799.47178	-0.00738
1797.54309	-0.00668
1795.61439	-0.00576
1793.68570	-0.00499
1791.75700	-0.00538
1789.82831	-0.00709
1787.89962	-0.00893
1785.97092	-0.00985
1784.04223	-0.00976
1782.11353	-0.00922
1780.18484	-0.00866
1778.25614	-0.00781
1776.32745	-0.00615
1774.39876	-0.00379
1772.47006	-0.00210
1770.54137	-0.00267
1768.61267	-0.00501
1766.68398	-0.00717
1764.75528	-0.00804
1762.82659	-0.00779
1760.89790	-0.00728
1758.96920	-0.00713
1757.04051	-0.00715
1755.11181	-0.00653
1753.18312	-0.00466
1751.25442	-0.00192
1749.32573	0.00020
1747.39704	0.00051
1745.46834	-0.00049
1743.53965	-0.00161
1741.61095	-0.00222
1739.68226	-0.00214
1737.75356	-0.00127
1735.82487	0.00013
1733.89618	0.00070
1731.96748	-0.00100
1730.03879	-0.00431
1728.11009	-0.00737
1726.18140	-0.00906
1724.25270	-0.00902
1722.32401	-0.00712
1720.39532	-0.00344
1718.46662	0.00085
1716.53793	0.00277
1714.60923	0.00079
1712.68054	-0.00253
1710.75184	-0.00443
1708.82315	-0.00414
1706.89446	-0.00221
1704.96576	0.00041
1703.03707	0.00317
1701.10837	0.00581
1699.17968	0.00711
1697.25098	0.00533
1695.32229	0.00131
1693.39359	-0.00223
1691.46490	-0.00360
1689.53621	-0.00255
1687.60751	0.00042
1685.67882	0.00379
1683.75012	0.00476
1681.82143	0.00249
1679.89273	-0.00058
1677.96404	-0.00235
1676.03535	-0.00236
1674.10665	-0.00111
1672.17796	0.00010
1670.24926	-0.00013
1668.32057	-0.00191
1666.39187	-0.00402
1664.46318	-0.00550
1662.53449	-0.00634
1660.60579	-0.00661
1658.67710	-0.00580
1656.74840	-0.00316
1654.81971	0.00122
1652.89101	0.00540
1650.96232	0.00706
1649.03363	0.00631
1647.10493	0.00377
1645.17624	-0.00015
1643.24754	-0.00367
1641.31885	-0.00491
1639.39015	-0.00360
1637.46146	-0.00134
1635.53277	-0.00103
1633.60407	-0.00343
1631.67538	-0.00603
1629.74668	-0.00695
1627.81799	-0.00621
1625.88929	-0.00491
1623.96060	-0.00415
1622.03191	-0.00404
1620.10321	-0.00401
1618.17452	-0.00407
1616.24582	-0.00492
1614.31713	-0.00666
1612.38843	-0.00833
1610.45974	-0.00924
1608.53105	-0.00955
1606.60235	-0.00979
1604.67366	-0.01025
1602.74496	-0.01079
1600.81627	-0.01120
1598.88757	-0.01134
1596.95888	-0.01121
1595.03019	-0.01103
1593.10149	-0.01108
1591.17280	-0.01145
1589.24410	-0.01193
1587.31541	-0.01231
1585.38671	-0.01241
1583.45802	-0.01195
1581.52933	-0.01052
1579.60063	-0.00804
1577.67194	-0.00527
1575.74324	-0.00354
1573.81455	-0.00319
1571.88585	-0.00328
1569.95716	-0.00324
1568.02847	-0.00328
1566.09977	-0.00328
1564.17108	-0.00220
1562.24238	0.00106
1560.31369	0.00621
1558.38499	0.00961
1556.45630	0.00776
1554.52761	0.00342
1552.59891	-0.00006
1550.67022	-0.00180
1548.74152	-0.00163
1546.81283	0.00080
1544.88413	0.00569
1542.95544	0.01181
1541.02675	0.01497
1539.09805	0.01228
1537.16936	0.00740
1535.24066	0.00382
1533.31197	0.00179
1531.38327	0.00082
1529.45458	0.00107
1527.52589	0.00288
1525.59719	0.00606
1523.66850	0.00952
1521.73980	0.01159
1519.81111	0.01111
1517.88241	0.00847
1515.95372	0.00531
1514.02503	0.00348
1512.09633	0.00420
1510.16764	0.00737
1508.23894	0.01032
1506.31025	0.00867
1504.38155	0.00345
1502.45286	-0.00051
1500.52416	-0.00182
1498.59547	-0.00174
1496.66678	-0.00183
1494.73808	-0.00212
1492.80939	-0.00159
1490.88069	-0.00038
1488.95200	-0.00028
1487.02330	-0.00253
1485.09461	-0.00575
1483.16592	-0.00801
1481.23722	-0.00852
1479.30853	-0.00728
1477.37983	-0.00455
1475.45114	-0.00126
1473.52244	0.00038
1471.59375	-0.00104
1469.66506	-0.00377
1467.73636	-0.00562
1465.80767	-0.00606
1463.87897	-0.00534
1461.95028	-0.00345
1460.02158	-0.00037
1458.09289	0.00244
1456.16420	0.00215
1454.23550	-0.00113
1452.30681	-0.00445
1450.37811	-0.00641
1448.44942	-0.00753
1446.52072	-0.00867
1444.59203	-0.00985
1442.66334	-0.01034
1440.73464	-0.00960
1438.80595	-0.00790
1436.87725	-0.00629
1434.94856	-0.00578
1433.01986	-0.00626
1431.09117	-0.00697
1429.16248	-0.00745
1427.23378	-0.00751
1425.30509	-0.00692
1423.37639	-0.00556
1421.44770	-0.00381
1419.51900	-0.00277
1417.59031	-0.00344
1415.66162	-0.00538
1413.73292	-0.00725
1411.80423	-0.00822
1409.87553	-0.00823
1407.94684	-0.00768
1406.01814	-0.00703
1404.08945	-0.00640
1402.16076	-0.00555
1400.23206	-0.00419
1398.30337	-0.00267
1396.37467	-0.00207
1394.44598	-0.00302
1392.51728	-0.00472
1390.58859	-0.00598
1388.65990	-0.00657
1386.73120	-0.00706
1384.80251	-0.00789
1382.87381	-0.00870
1380.94512	-0.00888
1379.01642	-0.00820
1377.08773	-0.00709
1375.15904	-0.00638
1373.23034	-0.00669
1371.30165	-0.00779
1369.37295	-0.00881
1367.44426	-0.00905
1365.51556	-0.00848
1363.58687	-0.00785
1361.65818	-0.00805
1359.72948	-0.00918
1357.80079	-0.01054
1355.87209	-0.01150
1353.94340	-0.01198
1352.01470	-0.01223
1350.08601	-0.01244
1348.15732	-0.01261
1346.22862	-0.01248
1344.29993	-0.01170
1342.37123	-0.01027
1340.44254	-0.00890
1338.51384	-0.00861
1336.58515	-0.00966
1334.65646	-0.01122
1332.72776	-0.01241
1330.79907	-0.01298
1328.87037	-0.01313
1326.94168	-0.01309
1325.01298	-0.01287
1323.08429	-0.01243
1321.15560	-0.01182
1319.22690	-0.01131
1317.29821	-0.01112
1315.36951	-0.01128
1313.44082	-0.01166
1311.51212	-0.01212
1309.58343	-0.01256
1307.65474	-0.01290
1305.72604	-0.01311
1303.79735	-0.01321
1301.86865	-0.01325
1299.93996	-0.01324
1298.01126	-0.01322
1296.08257	-0.01318
1294.15387	-0.01310
1292.22518	-0.01295
1290.29649	-0.01277
1288.36779	-0.01266
1286.43910	-0.01268
1284.51040	-0.01277
1282.58171	-0.01284
1280.65301	-0.01285
1278.72432	-0.01281
1276.79563	-0.01269
1274.86693	-0.01246
1272.93824	-0.01217
1271.00954	-0.01191
1269.08085	-0.01177
1267.15215	-0.01171
1265.22346	-0.01162
1263.29477	-0.01146
1261.36607	-0.01128
1259.43738	-0.01118
1257.50868	-0.01119
1255.57999	-0.01124
1253.65129	-0.01126
1251.72260	-0.01122
1249.79391	-0.01117
1247.86521	-0.01113
1245.93652	-0.01110
1244.00782	-0.01109
1242.07913	-0.01113
1240.15043	-0.01123
1238.22174	-0.01134
1236.29305	-0.01137
1234.36435	-0.01130
1232.43566	-0.01118
1230.50696	-0.01107
1228.57827	-0.01101
1226.64957	-0.01102
1224.72088	-0.01111
1222.79219	-0.01127
1220.86349	-0.01149
1218.93480	-0.01172
1217.00610	-0.01193
1215.07741	-0.01209
1213.14871	-0.01223
1211.22002	-0.01236
1209.29133	-0.01250
1207.36263	-0.01264
1205.43394	-0.01275
1203.50524	-0.01284
1201.57655	-0.01288
1199.64785	-0.01289
1197.71916	-0.01290
1195.79047	-0.01292
1193.86177	-0.01295
1191.93308	-0.01297
1190.00438	-0.01298
1188.07569	-0.01299
1186.14699	-0.01301
1184.21830	-0.01303
1182.28961	-0.01308
1180.36091	-0.01312
1178.43222	-0.01316
1176.50352	-0.01319
1174.57483	-0.01320
1172.64613	-0.01321
1170.71744	-0.01321
1168.78875	-0.01320
1166.86005	-0.01319
1164.93136	-0.01321
1163.00266	-0.01326
1161.07397	-0.01333
1159.14527	-0.01338
1157.21658	-0.01339
1155.28789	-0.01337
1153.35919	-0.01333
1151.43050	-0.01330
1149.50180	-0.01328
1147.57311	-0.01327
1145.64441	-0.01326
1143.71572	-0.01323
1141.78703	-0.01318
1139.85833	-0.01310
1137.92964	-0.01301
1136.00094	-0.01295
1134.07225	-0.01291
1132.14355	-0.01288
1130.21486	-0.01284
1128.28617	-0.01275
1126.35747	-0.01262
1124.42878	-0.01249
1122.50008	-0.01235
1120.57139	-0.01223
1118.64269	-0.01210
1116.71400	-0.01194
1114.78531	-0.01176
1112.85661	-0.01154
1110.92792	-0.01129
1108.99922	-0.01103
1107.07053	-0.01076
1105.14183	-0.01052
1103.21314	-0.01031
1101.28444	-0.01016
1099.35575	-0.01004
1097.42706	-0.00990
1095.49836	-0.00968
1093.56967	-0.00933
1091.64097	-0.00885
1089.71228	-0.00825
1087.78358	-0.00756
1085.85489	-0.00683
1083.92620	-0.00608
1081.99750	-0.00536
1080.06881	-0.00471
1078.14011	-0.00421
1076.21142	-0.00392
1074.28272	-0.00382
1072.35403	-0.00380
1070.42534	-0.00371
1068.49664	-0.00353
1066.56795	-0.00342
1064.63925	-0.00353
1062.71056	-0.00374
1060.78186	-0.00382
1058.85317	-0.00370
1056.92448	-0.00350
1054.99578	-0.00341
1053.06709	-0.00346
1051.13839	-0.00360
1049.20970	-0.00382
1047.28100	-0.00411
1045.35231	-0.00449
1043.42362	-0.00491
1041.49492	-0.00536
1039.56623	-0.00585
1037.63753	-0.00644
1035.70884	-0.00712
1033.78014	-0.00779
1031.85145	-0.00829
1029.92276	-0.00856
1027.99406	-0.00872
1026.06537	-0.00895
1024.13667	-0.00931
1022.20798	-0.00969
1020.27928	-0.00998
1018.35059	-0.01017
1016.42190	-0.01031
1014.49320	-0.01047
1012.56451	-0.01066
1010.63581	-0.01089
1008.70712	-0.01117
1006.77842	-0.01148
1004.84973	-0.01177
1002.92104	-0.01202
1000.99234	-0.01223
999.06365	-0.01242
997.13495	-0.01260
995.20626	-0.01274
993.27756	-0.01282
991.34887	-0.01286
989.42018	-0.01288
987.49148	-0.01296
985.56279	-0.01309
983.63409	-0.01324
981.70540	-0.01336
979.77670	-0.01342
977.84801	-0.01344
975.91932	-0.01343
973.99062	-0.01342
972.06193	-0.01342
970.13323	-0.01344
968.20454	-0.01346
966.27584	-0.01348
964.34715	-0.01350
962.41846	-0.01351
960.48976	-0.01353
958.56107	-0.01353
956.63237	-0.01353
954.70368	-0.01354
952.77498	-0.01356
950.84629	-0.01357
948.91760	-0.01356
946.98890	-0.01353
945.06021	-0.01350
943.13151	-0.01347
941.20282	-0.01345
939.27412	-0.01345
937.34543	-0.01349
935.41674	-0.01353
933.48804	-0.01358
931.55935	-0.01361
929.63065	-0.01360
927.70196	-0.01355
925.77326	-0.01350
923.84457	-0.01345
921.91588	-0.01342
919.98718	-0.01339
918.05849	-0.01330
916.12979	-0.01318
914.20110	-0.01305
912.27240	-0.01296
910.34371	-0.01289
908.41502	-0.01281
906.48632	-0.01268
904.55763	-0.01249
902.62893	-0.01228
900.70024	-0.01211
898.77154	-0.01200
896.84285	-0.01192
894.91415	-0.01185
892.98546	-0.01180
891.05677	-0.01183
889.12807	-0.01194
887.19938	-0.01206
885.27068	-0.01213
883.34199	-0.01213
881.41329	-0.01213
879.48460	-0.01219
877.55591	-0.01228
875.62721	-0.01235
873.69852	-0.01236
871.76982	-0.01231
869.84113	-0.01226
867.91243	-0.01228
865.98374	-0.01235
864.05505	-0.01246
862.12635	-0.01258
860.19766	-0.01270
858.26896	-0.01281
856.34027	-0.01287
854.41157	-0.01288
852.48288	-0.01285
850.55419	-0.01286
848.62549	-0.01295
846.69680	-0.01309
844.76810	-0.01325
842.83941	-0.01336
840.91071	-0.01342
838.98202	-0.01344
837.05333	-0.01342
835.12463	-0.01337
833.19594	-0.01330
831.26724	-0.01325
829.33855	-0.01323
827.40985	-0.01325
825.48116	-0.01328
823.55247	-0.01332
821.62377	-0.01335
819.69508	-0.01338
817.76638	-0.01338
815.83769	-0.01336
813.90899	-0.01334
811.98030	-0.01336
810.05161	-0.01341
808.12291	-0.01346
806.19422	-0.01348
804.26552	-0.01344
802.33683	-0.01339
800.40813	-0.01336
798.47944	-0.01333
796.55075	-0.01326
794.62205	-0.01316
792.69336	-0.01306
790.76466	-0.01301
788.83597	-0.01304
786.90727	-0.01311
784.97858	-0.01316
783.04989	-0.01317
781.12119	-0.01313
779.19250	-0.01304
777.26380	-0.01296
775.33511	-0.01298
773.40641	-0.01309
771.47772	-0.01323
769.54903	-0.01333
767.62033	-0.01333
765.69164	-0.01324
763.76294	-0.01306
761.83425	-0.01283
759.90555	-0.01264
757.97686	-0.01249
756.04817	-0.01233
754.11947	-0.01211
752.19078	-0.01179
750.26208	-0.01136
748.33339	-0.01078
746.40469	-0.00995
744.47600	-0.00888
742.54731	-0.00784
740.61861	-0.00714
738.68992	-0.00691
736.76122	-0.00700
734.83253	-0.00718
732.90383	-0.00738
730.97514	-0.00777
729.04645	-0.00818
727.11775	-0.00729
725.18906	-0.00297
723.26036	0.00500
721.33167	0.01272
719.40297	0.01470
717.47428	0.01003
715.54559	0.00360
713.61689	0.00039
711.68820	0.00145
709.75950	0.00525
707.83081	0.01054
705.90211	0.01709
703.97342	0.02492
702.04472	0.03398
700.11603	0.04420
698.18734	0.05539
696.25864	0.06718
694.32995	0.07924
692.40125	0.09130
690.47256	0.10305
688.54386	0.11424
686.61517	0.12472
684.68648	0.13440
682.75778	0.14294
680.82909	0.14953
678.90039	0.15319
676.97170	0.15496
675.04300	0.15929
673.11431	0.17003
671.18562	0.18303
669.25692	0.18179
667.32823	0.15669
665.39953	0.12795
663.47084	0.11384
661.54214	0.11361
659.61345	0.11987
657.68476	0.12597
655.75606	0.12913
653.82737	0.13000
651.89867	0.12898
649.96998	0.12441
648.04128	0.11445
646.11259	0.09997
644.18390	0.08429
642.25520	0.07014
640.32651	0.05798
638.39781	0.04706
636.46912	0.03695
634.54042	0.02777
632.61173	0.01967
630.68304	0.01277
628.75434	0.00704
626.82565	0.00239
624.89695	-0.00059
622.96826	-0.00035
621.03956	0.00385
619.11087	0.00944
617.18218	0.01137
615.25348	0.00726
613.32479	0.00026
611.39609	-0.00502
609.46740	-0.00711
607.53870	-0.00739
605.61001	-0.00736
603.68132	-0.00735
601.75262	-0.00726
599.82393	-0.00714
597.89523	-0.00719
595.96654	-0.00752
594.03784	-0.00812
592.10915	-0.00886
590.18046	-0.00960
588.25176	-0.01024
586.32307	-0.01072
584.39437	-0.01095
582.46568	-0.01100
580.53698	-0.01102
578.60829	-0.01111
576.67960	-0.01130
574.75090	-0.01154
572.82221	-0.01172
570.89351	-0.01179
568.96482	-0.01187
567.03612	-0.01207
565.10743	-0.01239
563.17874	-0.01277
561.25004	-0.01313
559.32135	-0.01333
557.39265	-0.01323
555.46396	-0.01282
553.53526	-0.01226
551.60657	-0.01170
549.67788	-0.01126
547.74918	-0.01108
545.82049	-0.01129
543.89179	-0.01175
541.96310	-0.01212
540.03440	-0.01215
538.10571	-0.01184
536.17702	-0.01142
534.24832	-0.01118
532.31963	-0.01105
530.39093	-0.01074
528.46224	-0.01016
526.53354	-0.00970
524.60485	-0.00976
522.67616	-0.01018
520.74746	-0.01052
518.81877	-0.01070
516.89007	-0.01101
514.96138	-0.01155
513.03268	-0.01197
511.10399	-0.01206
509.17530	-0.01202
507.24660	-0.01212
505.31791	-0.01238
503.38921	-0.01271
501.46052	-0.01309
499.53182	-0.01316
