3996.25459	0.28605
3994.32589	0.28741
3992.39720	0.28919
3990.46851	0.29066
3988.53981	0.29117
3986.61112	0.29113
3984.68242	0.29183
3982.75373	0.29393
3980.82503	0.29637
3978.89634	0.29746
3976.96765	0.29670
3975.03895	0.29525
3973.11026	0.29493
3971.18156	0.29626
3969.25287	0.29767
3967.32417	0.29756
3965.39548	0.29657
3963.46679	0.29655
3961.53809	0.29773
3959.60940	0.29862
3957.68070	0.29848
3955.75201	0.29783
3953.82331	0.29715
3951.89462	0.29695
3949.96593	0.29796
3948.03723	0.29983
3946.10854	0.30094
3944.17984	0.30052
3942.25115	0.29958
3940.32245	0.29947
3938.39376	0.30013
3936.46507	0.30024
3934.53637	0.29899
3932.60768	0.29697
3930.67898	0.29536
3928.75029	0.29466
3926.82159	0.29485
3924.89290	0.29562
3922.96421	0.29623
3921.03551	0.29629
3919.10682	0.29628
3917.17812	0.29679
3915.24943	0.29766
3913.32073	0.29811
3911.39204	0.29770
3909.46334	0.29689
3907.53465	0.29658
3905.60596	0.29736
3903.67726	0.29874
3901.74857	0.29941
3899.81987	0.29897
3897.89118	0.29857
3895.96248	0.29919
3894.03379	0.30071
3892.10510	0.30183
3890.17640	0.30149
3888.24771	0.30085
3886.31901	0.30165
3884.39032	0.30338
3882.46162	0.30412
3880.53293	0.30371
3878.60424	0.30388
3876.67554	0.30536
3874.74685	0.30733
3872.81815	0.30869
3870.88946	0.30933
3868.96076	0.30976
3867.03207	0.31002
3865.10338	0.31033
3863.17468	0.31146
3861.24599	0.31333
3859.31729	0.31487
3857.38860	0.31556
3855.45990	0.31643
3853.53121	0.31942
3851.60252	0.32319
3849.67382	0.32510
3847.74513	0.32614
3845.81643	0.32744
3843.88774	0.32885
3841.95904	0.33046
3840.03035	0.33365
3838.10166	0.33825
3836.17296	0.34139
3834.24427	0.34218
3832.31557	0.34223
3830.38688	0.34282
3828.45818	0.34450
3826.52949	0.34729
3824.60080	0.35076
3822.67210	0.35462
3820.74341	0.35861
3818.81471	0.36175
3816.88602	0.36341
3814.95732	0.36417
3813.02863	0.36539
3811.09994	0.36827
3809.17124	0.37331
3807.24255	0.37916
3805.31385	0.38324
3803.38516	0.38527
3801.45646	0.38694
3799.52777	0.38944
3797.59908	0.39312
3795.67038	0.39735
3793.74169	0.40095
3791.81299	0.40373
3789.88430	0.40686
3787.95560	0.41117
3786.02691	0.41592
3784.09822	0.41973
3782.16952	0.42255
3780.24083	0.42540
3778.31213	0.42865
3776.38344	0.43238
3774.45474	0.43717
3772.52605	0.44293
3770.59736	0.44833
3768.66866	0.45260
3766.73997	0.45640
3764.81127	0.45988
3762.88258	0.46304
3760.95388	0.46705
3759.02519	0.47237
3757.09650	0.47699
3755.16780	0.47984
3753.23911	0.48320
3751.31041	0.48984
3749.38172	0.49844
3747.45302	0.50581
3745.52433	0.51140
3743.59564	0.51529
3741.66694	0.51806
3739.73825	0.52161
3737.80955	0.52806
3735.88086	0.53800
3733.95216	0.54697
3732.02347	0.55118
3730.09478	0.55381
3728.16608	0.55845
3726.23739	0.56588
3724.30869	0.57443
3722.38000	0.58198
3720.45130	0.58889
3718.52261	0.59618
3716.59392	0.60302
3714.66522	0.60885
3712.73653	0.61506
3710.80783	0.62202
3708.87914	0.62761
3706.95044	0.63170
3705.02175	0.63559
3703.09305	0.63879
3701.16436	0.64071
3699.23567	0.64279
3697.30697	0.64672
3695.37828	0.65208
3693.44958	0.65706
3691.52089	0.65975
3689.59219	0.65974
3687.66350	0.65870
3685.73481	0.65733
3683.80611	0.65457
3681.87742	0.65119
3679.94872	0.64935
3678.02003	0.64800
3676.09133	0.64212
3674.16264	0.63294
3672.23395	0.62630
3670.30525	0.61981
3668.37656	0.61055
3666.44786	0.60233
3664.51917	0.59713
3662.59047	0.59357
3660.66178	0.59175
3658.73309	0.59297
3656.80439	0.59603
3654.87570	0.59773
3652.94700	0.59721
3651.01831	0.59458
3649.08961	0.58675
3647.16092	0.57505
3645.23223	0.56660
3643.30353	0.56262
3641.37484	0.56140
3639.44614	0.56191
3637.51745	0.56343
3635.58875	0.56647
3633.66006	0.57289
3631.73137	0.58195
3629.80267	0.58701
3627.87398	0.58301
3625.94528	0.57643
3624.01659	0.57111
3622.08789	0.56391
3620.15920	0.55517
3618.23051	0.55113
3616.30181	0.55493
3614.37312	0.56175
3612.44442	0.56505
3610.51573	0.56118
3608.58703	0.55410
3606.65834	0.55261
3604.72965	0.55849
3602.80095	0.56425
3600.87226	0.56365
3598.94356	0.56036
3597.01487	0.56465
3595.08617	0.58001
3593.15748	0.59722
3591.22879	0.60439
3589.30009	0.59788
3587.37140	0.58185
3585.44270	0.56625
3583.51401	0.55724
3581.58531	0.55518
3579.65662	0.55940
3577.72793	0.56732
3575.79923	0.57416
3573.87054	0.57898
3571.94184	0.58411
3570.01315	0.58793
3568.08445	0.58618
3566.15576	0.58259
3564.22707	0.58493
3562.29837	0.58976
3560.36968	0.59014
3558.44098	0.58807
3556.51229	0.58767
3554.58359	0.58415
3552.65490	0.57418
3550.72621	0.57048
3548.79751	0.58464
3546.86882	0.60818
3544.94012	0.62145
3543.01143	0.61550
3541.08273	0.59590
3539.15404	0.57554
3537.22535	0.56750
3535.29665	0.57737
3533.36796	0.59922
3531.43926	0.62200
3529.51057	0.63584
3527.58187	0.63853
3525.65318	0.63488
3523.72449	0.62753
3521.79579	0.61666
3519.86710	0.60966
3517.93840	0.60787
3516.00971	0.60633
3514.08101	0.60397
3512.15232	0.60549
3510.22362	0.61099
3508.29493	0.61317
3506.36624	0.60440
3504.43754	0.58829
3502.50885	0.58077
3500.58015	0.59001
3498.65146	0.60126
3496.72276	0.59743
3494.79407	0.58468
3492.86538	0.58273
3490.93668	0.59553
3489.00799	0.60935
3487.07929	0.61423
3485.15060	0.61361
3483.22190	0.61515
3481.29321	0.62534
3479.36452	0.64904
3477.43582	0.68394
3475.50713	0.71178
3473.57843	0.71040
3471.64974	0.68765
3469.72104	0.67090
3467.79235	0.66849
3465.86366	0.66840
3463.93496	0.65841
3462.00627	0.64201
3460.07757	0.63487
3458.14888	0.64697
3456.22018	0.66700
3454.29149	0.67485
3452.36280	0.67144
3450.43410	0.67304
3448.50541	0.68483
3446.57671	0.69711
3444.64802	0.69839
3442.71932	0.69330
3440.79063	0.69626
3438.86194	0.70659
3436.93324	0.70979
3435.00455	0.70625
3433.07585	0.70423
3431.14716	0.69817
3429.21846	0.68326
3427.28977	0.67338
3425.36108	0.67171
3423.43238	0.66434
3421.50369	0.64293
3419.57499	0.62189
3417.64630	0.61560
3415.71760	0.62899
3413.78891	0.66268
3411.86022	0.70926
3409.93152	0.73623
3408.00283	0.72271
3406.07413	0.69430
3404.14544	0.67878
3402.21674	0.67381
3400.28805	0.67513
3398.35936	0.68895
3396.43066	0.72022
3394.50197	0.75153
3392.57327	0.74825
3390.64458	0.70955
3388.71588	0.68293
3386.78719	0.69426
3384.85850	0.71894
3382.92980	0.72428
3381.00111	0.71722
3379.07241	0.70677
3377.14372	0.68363
3375.21502	0.65774
3373.28633	0.65440
3371.35764	0.67423
3369.42894	0.69725
3367.50025	0.71476
3365.57155	0.72326
3363.64286	0.70829
3361.71416	0.67611
3359.78547	0.65569
3357.85678	0.66307
3355.92808	0.69065
3353.99939	0.71623
3352.07069	0.71700
3350.14200	0.69692
3348.21330	0.67747
3346.28461	0.67205
3344.35592	0.67513
3342.42722	0.68039
3340.49853	0.68805
3338.56983	0.69445
3336.64114	0.68593
3334.71244	0.65839
3332.78375	0.62814
3330.85506	0.61587
3328.92636	0.62628
3326.99767	0.65092
3325.06897	0.68055
3323.14028	0.70891
3321.21158	0.72365
3319.28289	0.71743
3317.35420	0.69813
3315.42550	0.68445
3313.49681	0.68440
3311.56811	0.69461
3309.63942	0.70649
3307.71072	0.71729
3305.78203	0.72388
3303.85333	0.72016
3301.92464	0.71180
3299.99595	0.71270
3298.06725	0.71875
3296.13856	0.71353
3294.20986	0.69746
3292.28117	0.69012
3290.35247	0.70055
3288.42378	0.72089
3286.49509	0.73630
3284.56639	0.73653
3282.63770	0.72293
3280.70900	0.71089
3278.78031	0.71347
3276.85161	0.72281
3274.92292	0.72005
3272.99423	0.70730
3271.06553	0.69992
3269.13684	0.70040
3267.20814	0.69210
3265.27945	0.66873
3263.35075	0.64050
3261.42206	0.62204
3259.49337	0.61778
3257.56467	0.62350
3255.63598	0.63354
3253.70728	0.64707
3251.77859	0.66156
3249.84989	0.66680
3247.92120	0.65173
3245.99251	0.62140
3244.06381	0.59255
3242.13512	0.57457
3240.20642	0.56675
3238.27773	0.56923
3236.34903	0.58363
3234.42034	0.60422
3232.49165	0.61721
3230.56295	0.61735
3228.63426	0.61732
3226.70556	0.62931
3224.77687	0.64570
3222.84817	0.65097
3220.91948	0.64545
3218.99079	0.64068
3217.06209	0.63748
3215.13340	0.62911
3213.20470	0.61724
3211.27601	0.61117
3209.34731	0.61286
3207.41862	0.61609
3205.48993	0.61308
3203.56123	0.60216
3201.63254	0.58970
3199.70384	0.58516
3197.77515	0.58790
3195.84645	0.58884
3193.91776	0.58498
3191.98907	0.58186
3190.06037	0.58132
3188.13168	0.58173
3186.20298	0.58427
3184.27429	0.58954
3182.34559	0.59402
3180.41690	0.59517
3178.48821	0.59485
3176.55951	0.59542
3174.63082	0.59554
3172.70212	0.59318
3170.77343	0.59182
3168.84473	0.59729
3166.91604	0.60723
3164.98735	0.61207
3163.05865	0.60867
3161.12996	0.60385
3159.20126	0.60238
3157.27257	0.60097
3155.34387	0.59561
3153.41518	0.58901
3151.48649	0.58594
3149.55779	0.58512
3147.62910	0.58124
3145.70040	0.57425
3143.77171	0.57011
3141.84301	0.57186
3139.91432	0.57512
3137.98563	0.57459
3136.05693	0.57106
3134.12824	0.57009
3132.19954	0.57484
3130.27085	0.58142
3128.34215	0.58184
3126.41346	0.57434
3124.48477	0.56704
3122.55607	0.56760
3120.62738	0.57496
3118.69868	0.58379
3116.76999	0.59104
3114.84129	0.59555
3112.91260	0.59641
3110.98390	0.59446
3109.05521	0.59178
3107.12652	0.58967
3105.19782	0.58863
3103.26913	0.58941
3101.34043	0.59203
3099.41174	0.59506
3097.48304	0.59768
3095.55435	0.60053
3093.62566	0.60332
3091.69696	0.60474
3089.76827	0.60527
3087.83957	0.60660
3085.91088	0.60844
3083.98218	0.60864
3082.05349	0.60641
3080.12480	0.60403
3078.19610	0.60421
3076.26741	0.60696
3074.33871	0.61004
3072.41002	0.61190
3070.48132	0.61289
3068.55263	0.61446
3066.62394	0.61761
3064.69524	0.62183
3062.76655	0.62582
3060.83785	0.62921
3058.90916	0.63203
3056.98046	0.63314
3055.05177	0.63162
3053.12308	0.62940
3051.19438	0.62951
3049.26569	0.63233
3047.33699	0.63592
3045.40830	0.63908
3043.47960	0.64184
3041.55091	0.64378
3039.62222	0.64395
3037.69352	0.64254
3035.76483	0.64206
3033.83613	0.64529
3031.90744	0.65130
3029.97874	0.65619
3028.05005	0.65823
3026.12136	0.65909
3024.19266	0.66064
3022.26397	0.66382
3020.33527	0.66932
3018.40658	0.67678
3016.47788	0.68377
3014.54919	0.68732
3012.62050	0.68753
3010.69180	0.68772
3008.76311	0.68993
3006.83441	0.69311
3004.90572	0.69603
3002.97702	0.69909
3001.04833	0.70288
2999.11964	0.70717
2997.19094	0.71162
2995.26225	0.71661
2993.33355	0.72280
2991.40486	0.72985
2989.47616	0.73686
2987.54747	0.74392
2985.61878	0.75155
2983.69008	0.75994
2981.76139	0.76981
2979.83269	0.78196
2977.90400	0.79508
2975.97530	0.80604
2974.04661	0.81270
2972.11792	0.81587
2970.18922	0.81821
2968.26053	0.82114
2966.33183	0.82386
2964.40314	0.82544
2962.47444	0.82509
2960.54575	0.82149
2958.61706	0.81567
2956.68836	0.81199
2954.75967	0.81291
2952.83097	0.81643
2950.90228	0.81981
2948.97358	0.82235
2947.04489	0.82412
2945.11620	0.82658
2943.18750	0.83334
2941.25881	0.84709
2939.33011	0.86602
2937.40142	0.88563
2935.47272	0.90302
2933.54403	0.91793
2931.61534	0.93130
2929.68664	0.94544
2927.75795	0.96072
2925.82925	0.97276
2923.90056	0.97597
2921.97186	0.96666
2920.04317	0.94221
2918.11448	0.90977
2916.18578	0.88284
2914.25709	0.86818
2912.32839	0.86127
2910.39970	0.85428
2908.47100	0.84489
2906.54231	0.83616
2904.61361	0.83073
2902.68492	0.82840
2900.75623	0.82738
2898.82753	0.82575
2896.89884	0.82199
2894.97014	0.81571
2893.04145	0.80817
2891.11275	0.80165
2889.18406	0.79737
2887.25537	0.79426
2885.32667	0.79090
2883.39798	0.78757
2881.46928	0.78524
2879.54059	0.78384
2877.61189	0.78318
2875.68320	0.78387
2873.75451	0.78544
2871.82581	0.78525
2869.89712	0.78157
2867.96842	0.77624
2866.03973	0.77226
2864.11103	0.77093
2862.18234	0.77220
2860.25365	0.77548
2858.32495	0.77908
2856.39626	0.78056
2854.46756	0.77856
2852.53887	0.77223
2850.61017	0.75981
2848.68148	0.74207
2846.75279	0.72395
2844.82409	0.70946
2842.89540	0.69885
2840.96670	0.69062
2839.03801	0.68364
2837.10931	0.67727
2835.18062	0.67128
2833.25193	0.66581
2831.32323	0.66096
2829.39454	0.65624
2827.46584	0.65095
2825.53715	0.64514
2823.60845	0.63968
2821.67976	0.63513
2819.75107	0.63115
2817.82237	0.62713
2815.89368	0.62272
2813.96498	0.61792
2812.03629	0.61289
2810.10759	0.60792
2808.17890	0.60307
2806.25021	0.59816
2804.32151	0.59311
2802.39282	0.58814
2800.46412	0.58342
2798.53543	0.57879
2796.60673	0.57393
2794.67804	0.56871
2792.74935	0.56357
2790.82065	0.55915
2788.89196	0.55537
2786.96326	0.55140
2785.03457	0.54700
2783.10587	0.54274
2781.17718	0.53891
2779.24849	0.53521
2777.31979	0.53149
2775.39110	0.52796
2773.46240	0.52457
2771.53371	0.52098
2769.60501	0.51711
2767.67632	0.51313
2765.74763	0.50921
2763.81893	0.50554
2761.89024	0.50231
2759.96154	0.49940
2758.03285	0.49644
2756.10415	0.49330
2754.17546	0.49019
2752.24677	0.48722
2750.31807	0.48422
2748.38938	0.48096
2746.46068	0.47737
2744.53199	0.47375
2742.60329	0.47051
2740.67460	0.46764
2738.74591	0.46478
2736.81721	0.46173
2734.88852	0.45858
2732.95982	0.45537
2731.03113	0.45213
2729.10243	0.44895
2727.17374	0.44574
2725.24505	0.44222
2723.31635	0.43829
2721.38766	0.43424
2719.45896	0.43047
2717.53027	0.42716
2715.60157	0.42414
2713.67288	0.42118
2711.74419	0.41829
2709.81549	0.41567
2707.88680	0.41335
2705.95810	0.41104
2704.02941	0.40844
2702.10071	0.40556
2700.17202	0.40268
2698.24332	0.40001
2696.31463	0.39753
2694.38594	0.39514
2692.45724	0.39273
2690.52855	0.39025
2688.59985	0.38770
2686.67116	0.38518
2684.74246	0.38277
2682.81377	0.38044
2680.88508	0.37817
2678.95638	0.37598
2677.02769	0.37392
2675.09899	0.37195
2673.17030	0.37006
2671.24160	0.36819
2669.31291	0.36632
2667.38422	0.36437
2665.45552	0.36241
2663.52683	0.36059
2661.59813	0.35901
2659.66944	0.35756
2657.74074	0.35613
2655.81205	0.35475
2653.88336	0.35352
2651.95466	0.35242
2650.02597	0.35126
2648.09727	0.34991
2646.16858	0.34846
2644.23988	0.34715
2642.31119	0.34619
2640.38250	0.34565
2638.45380	0.34534
2636.52511	0.34493
2634.59641	0.34421
2632.66772	0.34338
2630.73902	0.34265
2628.81033	0.34202
2626.88164	0.34139
2624.95294	0.34079
2623.02425	0.34027
2621.09555	0.33983
2619.16686	0.33950
2617.23816	0.33928
2615.30947	0.33909
2613.38078	0.33877
2611.45208	0.33833
2609.52339	0.33798
2607.59469	0.33794
2605.66600	0.33817
2603.73730	0.33849
2601.80861	0.33879
2599.87992	0.33915
2597.95122	0.33961
2596.02253	0.34007
2594.09383	0.34045
2592.16514	0.34083
2590.23644	0.34132
2588.30775	0.34195
2586.37906	0.34273
2584.45036	0.34355
2582.52167	0.34427
2580.59297	0.34485
2578.66428	0.34546
2576.73558	0.34623
2574.80689	0.34710
2572.87820	0.34802
2570.94950	0.34911
2569.02081	0.35045
2567.09211	0.35193
2565.16342	0.35340
2563.23472	0.35485
2561.30603	0.35628
2559.37734	0.35776
2557.44864	0.35944
2555.51995	0.36130
2553.59125	0.36307
2551.66256	0.36455
2549.73386	0.36581
2547.80517	0.36703
2545.87648	0.36831
2543.94778	0.36964
2542.01909	0.37087
2540.09039	0.37198
2538.16170	0.37313
2536.23300	0.37446
2534.30431	0.37582
2532.37562	0.37702
2530.44692	0.37818
2528.51823	0.37958
2526.58953	0.38117
2524.66084	0.38271
2522.73214	0.38412
2520.80345	0.38556
2518.87476	0.38711
2516.94606	0.38867
2515.01737	0.39024
2513.08867	0.39189
2511.15998	0.39357
2509.23128	0.39519
2507.30259	0.39677
2505.37389	0.39834
2503.44520	0.39980
2501.51651	0.40106
2499.58781	0.40220
2497.65912	0.40330
2495.73042	0.40438
2493.80173	0.40553
2491.87303	0.40681
2489.94434	0.40812
2488.01565	0.40936
2486.08695	0.41054
2484.15826	0.41177
2482.22956	0.41313
2480.30087	0.41460
2478.37217	0.41600
2476.44348	0.41720
2474.51479	0.41830
2472.58609	0.41950
2470.65740	0.42088
2468.72870	0.42236
2466.80001	0.42390
2464.87131	0.42546
2462.94262	0.42702
2461.01393	0.42855
2459.08523	0.43006
2457.15654	0.43151
2455.22784	0.43286
2453.29915	0.43417
2451.37045	0.43558
2449.44176	0.43714
2447.51307	0.43882
2445.58437	0.44052
2443.65568	0.44220
2441.72698	0.44389
2439.79829	0.44567
2437.86959	0.44748
2435.94090	0.44919
2434.01221	0.45084
2432.08351	0.45264
2430.15482	0.45475
2428.22612	0.45701
2426.29743	0.45919
2424.36873	0.46127
2422.44004	0.46328
2420.51135	0.46518
2418.58265	0.46692
2416.65396	0.46859
2414.72526	0.47027
2412.79657	0.47203
2410.86787	0.47380
2408.93918	0.47548
2407.01049	0.47706
2405.08179	0.47859
2403.15310	0.48009
2401.22440	0.48164
2399.29571	0.48336
2397.36701	0.48517
2395.43832	0.48689
2393.50963	0.48850
2391.58093	0.49004
2389.65224	0.49153
2387.72354	0.49303
2385.79485	0.49471
2383.86615	0.49664
2381.93746	0.49888
2380.00877	0.50149
2378.08007	0.50445
2376.15138	0.50766
2374.22268	0.51119
2372.29399	0.51528
2370.36529	0.51995
2368.43660	0.52507
2366.50791	0.53065
2364.57921	0.53662
2362.65052	0.54283
2360.72182	0.54847
2358.79313	0.55174
2356.86443	0.55116
2354.93574	0.54728
2353.00705	0.54237
2351.07835	0.53888
2349.14966	0.53793
2347.22096	0.53978
2345.29227	0.54416
2343.36357	0.54953
2341.43488	0.55357
2339.50619	0.55579
2337.57749	0.55696
2335.64880	0.55762
2333.72010	0.55831
2331.79141	0.55927
2329.86271	0.56024
2327.93402	0.56087
2326.00533	0.56109
2324.07663	0.56102
2322.14794	0.56091
2320.21924	0.56098
2318.29055	0.56139
2316.36185	0.56243
2314.43316	0.56414
2312.50447	0.56608
2310.57577	0.56774
2308.64708	0.56904
2306.71838	0.57005
2304.78969	0.57082
2302.86099	0.57153
2300.93230	0.57244
2299.00360	0.57371
2297.07491	0.57528
2295.14622	0.57695
2293.21752	0.57857
2291.28883	0.58017
2289.36013	0.58182
2287.43144	0.58352
2285.50274	0.58519
2283.57405	0.58679
2281.64536	0.58823
2279.71666	0.58957
2277.78797	0.59093
2275.85927	0.59236
2273.93058	0.59381
2272.00188	0.59524
2270.07319	0.59673
2268.14450	0.59839
2266.21580	0.60016
2264.28711	0.60191
2262.35841	0.60348
2260.42972	0.60480
2258.50102	0.60589
2256.57233	0.60693
2254.64364	0.60807
2252.71494	0.60930
2250.78625	0.61055
2248.85755	0.61179
2246.92886	0.61299
2245.00016	0.61407
2243.07147	0.61503
2241.14278	0.61592
2239.21408	0.61694
2237.28539	0.61822
2235.35669	0.61967
2233.42800	0.62097
2231.49930	0.62197
2229.57061	0.62283
2227.64192	0.62381
2225.71322	0.62504
2223.78453	0.62640
2221.85583	0.62760
2219.92714	0.62843
2217.99844	0.62889
2216.06975	0.62926
2214.14106	0.62990
2212.21236	0.63088
2210.28367	0.63199
2208.35497	0.63295
2206.42628	0.63362
2204.49758	0.63397
2202.56889	0.63420
2200.64020	0.63467
2198.71150	0.63552
2196.78281	0.63656
2194.85411	0.63752
2192.92542	0.63837
2190.99672	0.63918
2189.06803	0.63996
2187.13934	0.64073
2185.21064	0.64154
2183.28195	0.64229
2181.35325	0.64284
2179.42456	0.64322
2177.49586	0.64355
2175.56717	0.64392
2173.63848	0.64451
2171.70978	0.64523
2169.78109	0.64566
2167.85239	0.64578
2165.92370	0.64605
2163.99500	0.64657
2162.06631	0.64690
2160.13762	0.64692
2158.20892	0.64702
2156.28023	0.64727
2154.35153	0.64732
2152.42284	0.64709
2150.49414	0.64699
2148.56545	0.64729
2146.63676	0.64777
2144.70806	0.64804
2142.77937	0.64791
2140.85067	0.64759
2138.92198	0.64742
2136.99328	0.64745
2135.06459	0.64743
2133.13590	0.64723
2131.20720	0.64698
2129.27851	0.64691
2127.34981	0.64708
2125.42112	0.64737
2123.49242	0.64753
2121.56373	0.64738
2119.63504	0.64689
2117.70634	0.64620
2115.77765	0.64544
2113.84895	0.64459
2111.92026	0.64375
2109.99156	0.64324
2108.06287	0.64322
2106.13417	0.64330
2104.20548	0.64306
2102.27679	0.64251
2100.34809	0.64192
2098.41940	0.64125
2096.49070	0.64021
2094.56201	0.63879
2092.63331	0.63744
2090.70462	0.63655
2088.77593	0.63588
2086.84723	0.63511
2084.91854	0.63425
2082.98984	0.63344
2081.06115	0.63261
2079.13245	0.63172
2077.20376	0.63088
2075.27507	0.63011
2073.34637	0.62925
2071.41768	0.62826
2069.48898	0.62736
2067.56029	0.62664
2065.63159	0.62594
2063.70290	0.62516
2061.77421	0.62437
2059.84551	0.62344
2057.91682	0.62227
2055.98812	0.62101
2054.05943	0.61986
2052.13073	0.61885
2050.20204	0.61788
2048.27335	0.61670
2046.34465	0.61527
2044.41596	0.61381
2042.48726	0.61242
2040.55857	0.61105
2038.62987	0.60972
2036.70118	0.60849
2034.77249	0.60725
2032.84379	0.60582
2030.91510	0.60421
2028.98640	0.60265
2027.05771	0.60126
2025.12901	0.59992
2023.20032	0.59854
2021.27163	0.59711
2019.34293	0.59558
2017.41424	0.59388
2015.48554	0.59218
2013.55685	0.59071
2011.62815	0.58945
2009.69946	0.58821
2007.77077	0.58688
2005.84207	0.58544
2003.91338	0.58386
2001.98468	0.58210
2000.05599	0.58031
1998.12729	0.57864
1996.19860	0.57713
1994.26991	0.57563
1992.34121	0.57390
1990.41252	0.57191
1988.48382	0.56987
1986.55513	0.56793
1984.62643	0.56598
1982.69774	0.56396
1980.76905	0.56200
1978.84035	0.56030
1976.91166	0.55885
1974.98296	0.55744
1973.05427	0.55594
1971.12557	0.55450
1969.19688	0.55319
1967.26819	0.55180
1965.33949	0.55025
1963.41080	0.54875
1961.48210	0.54745
1959.55341	0.54616
1957.62471	0.54467
1955.69602	0.54306
1953.76733	0.54154
1951.83863	0.54019
1949.90994	0.53892
1947.98124	0.53769
1946.05255	0.53656
1944.12385	0.53554
1942.19516	0.53462
1940.26647	0.53380
1938.33777	0.53306
1936.40908	0.53238
1934.48038	0.53183
1932.55169	0.53147
1930.62299	0.53123
1928.69430	0.53107
1926.76561	0.53101
1924.83691	0.53085
1922.90822	0.53039
1920.97952	0.52979
1919.05083	0.52919
1917.12213	0.52829
1915.19344	0.52697
1913.26475	0.52559
1911.33605	0.52429
1909.40736	0.52290
1907.47866	0.52149
1905.54997	0.52036
1903.62127	0.51962
1901.69258	0.51905
1899.76388	0.51839
1897.83519	0.51757
1895.90650	0.51671
1893.97780	0.51609
1892.04911	0.51585
1890.12041	0.51576
1888.19172	0.51559
1886.26302	0.51555
1884.33433	0.51576
1882.40564	0.51587
1880.47694	0.51562
1878.54825	0.51531
1876.61955	0.51537
1874.69086	0.51594
1872.76216	0.51680
1870.83347	0.51762
1868.90478	0.51810
1866.97608	0.51830
1865.04739	0.51857
1863.11869	0.51906
1861.19000	0.51967
1859.26130	0.52031
1857.33261	0.52095
1855.40392	0.52165
1853.47522	0.52251
1851.54653	0.52352
1849.61783	0.52458
1847.68914	0.52573
1845.76044	0.52696
1843.83175	0.52798
1841.90306	0.52882
1839.97436	0.52991
1838.04567	0.53136
1836.11697	0.53295
1834.18828	0.53457
1832.25958	0.53634
1830.33089	0.53834
1828.40220	0.54040
1826.47350	0.54228
1824.54481	0.54380
1822.61611	0.54503
1820.68742	0.54644
1818.75872	0.54827
1816.83003	0.55032
1814.90134	0.55246
1812.97264	0.55483
1811.04395	0.55714
1809.11525	0.55904
1807.18656	0.56098
1805.25786	0.56360
1803.32917	0.56685
1801.40048	0.57003
1799.47178	0.57251
1797.54309	0.57463
1795.61439	0.57731
1793.68570	0.58087
1791.75700	0.58456
1789.82831	0.58755
1787.89962	0.59019
1785.97092	0.59322
1784.04223	0.59661
1782.11353	0.59985
1780.18484	0.60282
1778.25614	0.60585
1776.32745	0.60939
1774.39876	0.61378
1772.47006	0.61856
1770.54137	0.62265
1768.61267	0.62625
1766.68398	0.63028
1764.75528	0.63493
1762.82659	0.64007
1760.89790	0.64542
1758.96920	0.65101
1757.04051	0.65789
1755.11181	0.66706
1753.18312	0.67853
1751.25442	0.69177
1749.32573	0.70452
1747.39704	0.71297
1745.46834	0.71727
1743.53965	0.71967
1741.61095	0.71991
1739.68226	0.71722
1737.75356	0.71323
1735.82487	0.70961
1733.89618	0.70605
1731.96748	0.70207
1730.03879	0.69834
1728.11009	0.69487
1726.18140	0.69143
1724.25270	0.68853
1722.32401	0.68681
1720.39532	0.68604
1718.46662	0.68444
1716.53793	0.67963
1714.60923	0.67345
1712.68054	0.66940
1710.75184	0.66759
1708.82315	0.66700
1706.89446	0.66714
1704.96576	0.66797
1703.03707	0.66981
1701.10837	0.67326
1699.17968	0.67748
1697.25098	0.67884
1695.32229	0.67610
1693.39359	0.67283
1691.46490	0.67248
1689.53621	0.67549
1687.60751	0.67986
1685.67882	0.68237
1683.75012	0.68037
1681.82143	0.67618
1679.89273	0.67500
1677.96404	0.67739
1676.03535	0.68025
1674.10665	0.68044
1672.17796	0.67978
1670.24926	0.68237
1668.32057	0.68754
1666.39187	0.69117
1664.46318	0.69339
1662.53449	0.69903
1660.60579	0.71000
1658.67710	0.72008
1656.74840	0.72376
1654.81971	0.71968
1652.89101	0.71136
1650.96232	0.70845
1649.03363	0.71629
1647.10493	0.72847
1645.17624	0.72832
1643.24754	0.71467
1641.31885	0.70453
1639.39015	0.70667
1637.46146	0.71772
1635.53277	0.72241
1633.60407	0.71249
1631.67538	0.69752
1629.74668	0.68460
1627.81799	0.67764
1625.88929	0.67777
1623.96060	0.67869
1622.03191	0.67579
1620.10321	0.67262
1618.17452	0.67013
1616.24582	0.66333
1614.31713	0.65354
1612.38843	0.64699
1610.45974	0.64460
1608.53105	0.64466
1606.60235	0.64677
1604.67366	0.65109
1602.74496	0.65629
1600.81627	0.66023
1598.88757	0.66247
1596.95888	0.66471
1595.03019	0.66844
1593.10149	0.67299
1591.17280	0.67721
1589.24410	0.68117
1587.31541	0.68460
1585.38671	0.68630
1583.45802	0.68658
1581.52933	0.68755
1579.60063	0.69070
1577.67194	0.69498
1575.74324	0.69723
1573.81455	0.69742
1571.88585	0.69927
1569.95716	0.70361
1568.02847	0.70718
1566.09977	0.70798
1564.17108	0.70925
1562.24238	0.71679
1560.31369	0.73549
1558.38499	0.75515
1556.45630	0.75483
1554.52761	0.74707
1552.59891	0.74330
1550.67022	0.74181
1548.74152	0.74122
1546.81283	0.74221
1544.88413	0.74526
1542.95544	0.74979
1541.02675	0.74976
1539.09805	0.73926
1537.16936	0.72799
1535.24066	0.72249
1533.31197	0.72220
1531.38327	0.72401
1529.45458	0.72457
1527.52589	0.72308
1525.59719	0.72174
1523.66850	0.72252
1521.73980	0.72328
1519.81111	0.72012
1517.88241	0.71407
1515.95372	0.70741
1514.02503	0.70212
1512.09633	0.70063
1510.16764	0.70440
1508.23894	0.71103
1506.31025	0.71164
1504.38155	0.70574
1502.45286	0.70055
1500.52416	0.69789
1498.59547	0.69677
1496.66678	0.69544
1494.73808	0.69342
1492.80939	0.69197
1490.88069	0.69231
1488.95200	0.69449
1487.02330	0.69663
1485.09461	0.69732
1483.16592	0.69705
1481.23722	0.69683
1479.30853	0.69728
1477.37983	0.69887
1475.45114	0.70254
1473.52244	0.70857
1471.59375	0.71411
1469.66506	0.71678
1467.73636	0.71818
1465.80767	0.71950
1463.87897	0.72038
1461.95028	0.72145
1460.02158	0.72449
1458.09289	0.73054
1456.16420	0.73662
1454.23550	0.73820
1452.30681	0.73637
1450.37811	0.73346
1448.44942	0.73071
1446.52072	0.72841
1444.59203	0.72667
1442.66334	0.72638
1440.73464	0.72823
1438.80595	0.73115
1436.87725	0.73269
1434.94856	0.73216
1433.01986	0.73173
1431.09117	0.73244
1429.16248	0.73367
1427.23378	0.73477
1425.30509	0.73538
1423.37639	0.73559
1421.44770	0.73664
1419.51900	0.73961
1417.59031	0.74287
1415.66162	0.74404
1413.73292	0.74343
1411.80423	0.74183
1409.87553	0.73958
1407.94684	0.73778
1406.01814	0.73809
1404.08945	0.74066
1402.16076	0.74362
1400.23206	0.74541
1398.30337	0.74579
1396.37467	0.74471
1394.44598	0.74233
1392.51728	0.73981
1390.58859	0.73897
1388.65990	0.74127
1386.73120	0.74613
1384.80251	0.75070
1382.87381	0.75332
1380.94512	0.75394
1379.01642	0.75224
1377.08773	0.74801
1375.15904	0.74223
1373.23034	0.73644
1371.30165	0.73101
1369.37295	0.72530
1367.44426	0.71948
1365.51556	0.71461
1363.58687	0.71103
1361.65818	0.70826
1359.72948	0.70643
1357.80079	0.70584
1355.87209	0.70567
1353.94340	0.70486
1352.01470	0.70371
1350.08601	0.70337
1348.15732	0.70400
1346.22862	0.70471
1344.29993	0.70514
1342.37123	0.70577
1340.44254	0.70664
1338.51384	0.70709
1336.58515	0.70700
1334.65646	0.70685
1332.72776	0.70672
1330.79907	0.70678
1328.87037	0.70764
1326.94168	0.70912
1325.01298	0.70975
1323.08429	0.70852
1321.15560	0.70599
1319.22690	0.70341
1317.29821	0.70157
1315.36951	0.70061
1313.44082	0.70025
1311.51212	0.69994
1309.58343	0.69946
1307.65474	0.69914
1305.72604	0.69938
1303.79735	0.69982
1301.86865	0.69970
1299.93996	0.69900
1298.01126	0.69826
1296.08257	0.69761
1294.15387	0.69704
1292.22518	0.69688
1290.29649	0.69733
1288.36779	0.69788
1286.43910	0.69811
1284.51040	0.69841
1282.58171	0.69928
1280.65301	0.70057
1278.72432	0.70192
1276.79563	0.70354
1274.86693	0.70555
1272.93824	0.70704
1271.00954	0.70688
1269.08085	0.70513
1267.15215	0.70277
1265.22346	0.70073
1263.29477	0.69943
1261.36607	0.69838
1259.43738	0.69650
1257.50868	0.69405
1255.57999	0.69261
1253.65129	0.69282
1251.72260	0.69382
1249.79391	0.69474
1247.86521	0.69552
1245.93652	0.69634
1244.00782	0.69717
1242.07913	0.69765
1240.15043	0.69734
1238.22174	0.69629
1236.29305	0.69536
1234.36435	0.69532
1232.43566	0.69588
1230.50696	0.69598
1228.57827	0.69528
1226.64957	0.69449
1224.72088	0.69417
1222.79219	0.69388
1220.86349	0.69306
1218.93480	0.69189
1217.00610	0.69068
1215.07741	0.68916
1213.14871	0.68722
1211.22002	0.68555
1209.29133	0.68490
1207.36263	0.68508
1205.43394	0.68522
1203.50524	0.68455
1201.57655	0.68318
1199.64785	0.68208
1197.71916	0.68206
1195.79047	0.68299
1193.86177	0.68425
1191.93308	0.68521
1190.00438	0.68537
1188.07569	0.68479
1186.14699	0.68417
1184.21830	0.68389
1182.28961	0.68361
1180.36091	0.68326
1178.43222	0.68363
1176.50352	0.68501
1174.57483	0.68629
1172.64613	0.68656
1170.71744	0.68661
1168.78875	0.68767
1166.86005	0.68949
1164.93136	0.69099
1163.00266	0.69176
1161.07397	0.69238
1159.14527	0.69341
1157.21658	0.69452
1155.28789	0.69502
1153.35919	0.69505
1151.43050	0.69538
1149.50180	0.69602
1147.57311	0.69621
1145.64441	0.69600
1143.71572	0.69650
1141.78703	0.69778
1139.85833	0.69792
1137.92964	0.69573
1136.00094	0.69290
1134.07225	0.69136
1132.14355	0.69096
1130.21486	0.69098
1128.28617	0.69182
1126.35747	0.69388
1124.42878	0.69642
1122.50008	0.69866
1120.57139	0.70080
1118.64269	0.70322
1116.71400	0.70526
1114.78531	0.70604
1112.85661	0.70593
1110.92792	0.70616
1108.99922	0.70764
1107.07053	0.71118
1105.14183	0.71822
1103.21314	0.73007
1101.28444	0.74601
1099.35575	0.76312
1097.42706	0.77892
1095.49836	0.79356
1093.56967	0.80816
1091.64097	0.82250
1089.71228	0.83512
1087.78358	0.84396
1085.85489	0.84653
1083.92620	0.84164
1081.99750	0.83159
1080.06881	0.82055
1078.14011	0.81110
1076.21142	0.80334
1074.28272	0.79647
1072.35403	0.79055
1070.42534	0.78686
1068.49664	0.78604
1066.56795	0.78697
1064.63925	0.78913
1062.71056	0.79491
1060.78186	0.80745
1058.85317	0.82764
1056.92448	0.85474
1054.99578	0.88773
1053.06709	0.92464
1051.13839	0.96152
1049.20970	0.99159
1047.28100	1.00606
1045.35231	1.00023
1043.42362	0.97800
1041.49492	0.94629
1039.56623	0.90990
1037.63753	0.87206
1035.70884	0.83627
1033.78014	0.80615
1031.85145	0.78360
1029.92276	0.76742
1027.99406	0.75435
1026.06537	0.74185
1024.13667	0.73033
1022.20798	0.72194
1020.27928	0.71720
1018.35059	0.71391
1016.42190	0.70973
1014.49320	0.70463
1012.56451	0.69988
1010.63581	0.69605
1008.70712	0.69277
1006.77842	0.68975
1004.84973	0.68704
1002.92104	0.68445
1000.99234	0.68162
999.06365	0.67845
997.13495	0.67528
995.20626	0.67271
993.27756	0.67141
991.34887	0.67160
989.42018	0.67247
987.49148	0.67250
985.56279	0.67081
983.63409	0.66826
981.70540	0.66646
979.77670	0.66552
977.84801	0.66390
975.91932	0.66107
973.99062	0.65857
972.06193	0.65752
970.13323	0.65697
968.20454	0.65576
966.27584	0.65433
964.34715	0.65344
962.41846	0.65275
960.48976	0.65176
958.56107	0.65065
956.63237	0.64978
954.70368	0.64927
952.77498	0.64923
950.84629	0.64957
948.91760	0.64971
946.98890	0.64925
945.06021	0.64852
943.13151	0.64805
941.20282	0.64778
939.27412	0.64730
937.34543	0.64645
935.41674	0.64508
933.48804	0.64320
931.55935	0.64157
929.63065	0.64095
927.70196	0.64071
925.77326	0.63955
923.84457	0.63738
921.91588	0.63524
919.98718	0.63376
918.05849	0.63308
916.12979	0.63345
914.20110	0.63412
912.27240	0.63320
910.34371	0.63044
908.41502	0.62826
906.48632	0.62842
904.55763	0.62961
902.62893	0.62987
900.70024	0.62920
898.77154	0.62899
896.84285	0.63033
894.91415	0.63368
892.98546	0.63938
891.05677	0.64724
889.12807	0.65652
887.19938	0.66755
885.27068	0.68152
883.34199	0.69679
881.41329	0.70684
879.48460	0.70462
877.55591	0.68951
875.62721	0.66792
873.69852	0.64663
871.76982	0.62725
869.84113	0.60871
867.91243	0.59324
865.98374	0.58580
864.05505	0.58715
862.12635	0.59184
860.19766	0.59423
858.26896	0.59338
856.34027	0.59103
854.41157	0.58845
852.48288	0.58657
850.55419	0.58606
848.62549	0.58615
846.69680	0.58537
844.76810	0.58333
842.83941	0.58103
840.91071	0.57926
838.98202	0.57773
837.05333	0.57598
835.12463	0.57434
833.19594	0.57305
831.26724	0.57179
829.33855	0.57040
827.40985	0.56927
825.48116	0.56871
823.55247	0.56850
821.62377	0.56836
819.69508	0.56840
817.76638	0.56839
815.83769	0.56724
813.90899	0.56501
811.98030	0.56405
810.05161	0.56570
808.12291	0.56811
806.19422	0.56897
804.26552	0.56836
802.33683	0.56731
800.40813	0.56595
798.47944	0.56408
796.55075	0.56193
794.62205	0.55970
792.69336	0.55758
790.76466	0.55632
788.83597	0.55617
786.90727	0.55595
784.97858	0.55491
783.04989	0.55414
781.12119	0.55465
779.19250	0.55581
777.26380	0.55640
775.33511	0.55572
773.40641	0.55401
771.47772	0.55314
769.54903	0.55543
767.62033	0.56032
765.69164	0.56394
763.76294	0.56357
761.83425	0.56069
759.90555	0.55825
757.97686	0.55706
756.04817	0.55631
754.11947	0.55644
752.19078	0.55925
750.26208	0.56448
748.33339	0.56822
746.40469	0.56753
744.47600	0.56428
742.54731	0.56185
740.61861	0.56118
738.68992	0.56250
736.76122	0.56662
734.83253	0.57230
732.90383	0.57560
730.97514	0.57432
729.04645	0.57114
727.11775	0.57052
725.18906	0.57410
723.26036	0.58000
721.33167	0.58410
719.40297	0.58304
717.47428	0.57819
715.54559	0.57440
713.61689	0.57379
711.68820	0.57433
709.75950	0.57355
707.83081	0.57123
705.90211	0.56905
703.97342	0.56873
702.04472	0.56964
700.11603	0.57028
698.18734	0.57173
696.25864	0.57544
694.32995	0.57982
692.40125	0.58337
690.47256	0.58692
688.54386	0.58937
686.61517	0.58801
684.68648	0.58535
682.75778	0.58676
680.82909	0.59093
678.90039	0.59089
676.97170	0.58546
675.04300	0.58056
673.11431	0.58169
671.18562	0.59182
669.25692	0.60795
667.32823	0.61286
665.39953	0.60549
663.47084	0.60274
661.54214	0.60593
659.61345	0.60569
657.68476	0.59997
655.75606	0.59693
653.82737	0.60064
651.89867	0.60721
649.96998	0.61207
648.04128	0.61341
646.11259	0.61066
644.18390	0.60287
642.25520	0.59243
640.32651	0.58644
638.39781	0.58879
636.46912	0.59475
634.54042	0.59945
632.61173	0.60364
630.68304	0.60883
628.75434	0.61423
626.82565	0.61848
624.89695	0.61902
622.96826	0.61644
621.03956	0.61236
619.11087	0.60542
617.18218	0.59383
615.25348	0.58626
613.32479	0.58719
611.39609	0.58565
609.46740	0.57465
607.53870	0.56568
605.61001	0.56726
603.68132	0.57248
601.75262	0.57674
599.82393	0.58394
597.89523	0.59086
595.96654	0.58922
594.03784	0.57886
592.10915	0.56871
590.18046	0.57047
588.25176	0.59292
586.32307	0.62958
584.39437	0.65426
582.46568	0.64821
580.53698	0.63288
578.60829	0.63740
576.67960	0.65277
574.75090	0.64008
572.82221	0.60355
570.89351	0.57877
568.96482	0.57683
567.03612	0.57849
565.10743	0.57847
563.17874	0.58335
561.25004	0.60130
559.32135	0.62991
557.39265	0.65523
555.46396	0.65254
553.53526	0.61680
551.60657	0.57697
549.67788	0.57214
547.74918	0.60350
545.82049	0.63776
543.89179	0.63799
541.96310	0.61928
540.03440	0.61555
538.10571	0.63682
536.17702	0.67608
534.24832	0.72660
532.31963	0.71301
530.39093	0.64007
528.46224	0.58936
526.53354	0.58481
524.60485	0.60948
522.67616	0.62310
520.74746	0.57204
518.81877	0.51783
516.89007	0.54311
514.96138	0.66149
513.03268	0.73546
511.10399	0.71573
509.17530	0.60157
507.24660	0.65145
505.31791	0.93063
503.38921	1.06704
501.46052	0.54584
499.53182	0.30901
