3996.25459	-0.01719
3994.32589	-0.01715
3992.39720	-0.01714
3990.46851	-0.01717
3988.53981	-0.01722
3986.61112	-0.01727
3984.68242	-0.01729
3982.75373	-0.01726
3980.82503	-0.01720
3978.89634	-0.01711
3976.96765	-0.01699
3975.03895	-0.01686
3973.11026	-0.01680
3971.18156	-0.01684
3969.25287	-0.01695
3967.32417	-0.01706
3965.39548	-0.01708
3963.46679	-0.01702
3961.53809	-0.01694
3959.60940	-0.01691
3957.68070	-0.01692
3955.75201	-0.01686
3953.82331	-0.01662
3951.89462	-0.01622
3949.96593	-0.01578
3948.03723	-0.01545
3946.10854	-0.01529
3944.17984	-0.01534
3942.25115	-0.01564
3940.32245	-0.01609
3938.39376	-0.01638
3936.46507	-0.01622
3934.53637	-0.01566
3932.60768	-0.01509
3930.67898	-0.01485
3928.75029	-0.01489
3926.82159	-0.01494
3924.89290	-0.01490
3922.96421	-0.01478
3921.03551	-0.01467
3919.10682	-0.01466
3917.17812	-0.01497
3915.24943	-0.01563
3913.32073	-0.01635
3911.39204	-0.01662
3909.46334	-0.01608
3907.53465	-0.01463
3905.60596	-0.01263
3903.67726	-0.01095
3901.74857	-0.01060
3899.81987	-0.01160
3897.89118	-0.01291
3895.96248	-0.01367
3894.03379	-0.01378
3892.10510	-0.01357
3890.17640	-0.01338
3888.24771	-0.01320
3886.31901	-0.01285
3884.39032	-0.01241
3882.46162	-0.01225
3880.53293	-0.01254
3878.60424	-0.01292
3876.67554	-0.01285
3874.74685	-0.01210
3872.81815	-0.01097
3870.88946	-0.01012
3868.96076	-0.00992
3867.03207	-0.01018
3865.10338	-0.01067
3863.17468	-0.01134
3861.24599	-0.01196
3859.31729	-0.01194
3857.38860	-0.01085
3855.45990	-0.00904
3853.53121	-0.00817
3851.60252	-0.00958
3849.67382	-0.01183
3847.74513	-0.01316
3845.81643	-0.01305
3843.88774	-0.01172
3841.95904	-0.00981
3840.03035	-0.00826
3838.10166	-0.00791
3836.17296	-0.00881
3834.24427	-0.01025
3832.31557	-0.01156
3830.38688	-0.01242
3828.45818	-0.01268
3826.52949	-0.01225
3824.60080	-0.01113
3822.67210	-0.00969
3820.74341	-0.00872
3818.81471	-0.00902
3816.88602	-0.01062
3814.95732	-0.01267
3813.02863	-0.01417
3811.09994	-0.01461
3809.17124	-0.01397
3807.24255	-0.01258
3805.31385	-0.01099
3803.38516	-0.00978
3801.45646	-0.00942
3799.52777	-0.01011
3797.59908	-0.01161
3795.67038	-0.01337
3793.74169	-0.01491
3791.81299	-0.01592
3789.88430	-0.01628
3787.95560	-0.01608
3786.02691	-0.01557
3784.09822	-0.01498
3782.16952	-0.01452
3780.24083	-0.01441
3778.31213	-0.01476
3776.38344	-0.01525
3774.45474	-0.01536
3772.52605	-0.01484
3770.59736	-0.01400
3768.66866	-0.01341
3766.73997	-0.01335
3764.81127	-0.01344
3762.88258	-0.01318
3760.95388	-0.01247
3759.02519	-0.01154
3757.09650	-0.01051
3755.16780	-0.00914
3753.23911	-0.00725
3751.31041	-0.00530
3749.38172	-0.00429
3747.45302	-0.00461
3745.52433	-0.00575
3743.59564	-0.00698
3741.66694	-0.00765
3739.73825	-0.00728
3737.80955	-0.00600
3735.88086	-0.00479
3733.95216	-0.00510
3732.02347	-0.00692
3730.09478	-0.00876
3728.16608	-0.00969
3726.23739	-0.00985
3724.30869	-0.00994
3722.38000	-0.01054
3720.45130	-0.01156
3718.52261	-0.01236
3716.59392	-0.01231
3714.66522	-0.01123
3712.73653	-0.00969
3710.80783	-0.00904
3708.87914	-0.00991
3706.95044	-0.01131
3705.02175	-0.01220
3703.09305	-0.01252
3701.16436	-0.01273
3699.23567	-0.01308
3697.30697	-0.01320
3695.37828	-0.01260
3693.44958	-0.01112
3691.52089	-0.00934
3689.59219	-0.00864
3687.66350	-0.00973
3685.73481	-0.01152
3683.80611	-0.01256
3681.87742	-0.01228
3679.94872	-0.01074
3678.02003	-0.00846
3676.09133	-0.00649
3674.16264	-0.00581
3672.23395	-0.00654
3670.30525	-0.00828
3668.37656	-0.01059
3666.44786	-0.01280
3664.51917	-0.01431
3662.59047	-0.01484
3660.66178	-0.01451
3658.73309	-0.01362
3656.80439	-0.01243
3654.87570	-0.01092
3652.94700	-0.00887
3651.01831	-0.00658
3649.08961	-0.00563
3647.16092	-0.00726
3645.23223	-0.01017
3643.30353	-0.01254
3641.37484	-0.01386
3639.44614	-0.01428
3637.51745	-0.01403
3635.58875	-0.01322
3633.66006	-0.01187
3631.73137	-0.01021
3629.80267	-0.00908
3627.87398	-0.00939
3625.94528	-0.01063
3624.01659	-0.01144
3622.08789	-0.01126
3620.15920	-0.01041
3618.23051	-0.00969
3616.30181	-0.00957
3614.37312	-0.00986
3612.44442	-0.01023
3610.51573	-0.01070
3608.58703	-0.01142
3606.65834	-0.01232
3604.72965	-0.01305
3602.80095	-0.01331
3600.87226	-0.01310
3598.94356	-0.01269
3597.01487	-0.01245
3595.08617	-0.01251
3593.15748	-0.01263
3591.22879	-0.01246
3589.30009	-0.01207
3587.37140	-0.01201
3585.44270	-0.01275
3583.51401	-0.01392
3581.58531	-0.01487
3579.65662	-0.01537
3577.72793	-0.01555
3575.79923	-0.01559
3573.87054	-0.01537
3571.94184	-0.01460
3570.01315	-0.01323
3568.08445	-0.01188
3566.15576	-0.01157
3564.22707	-0.01257
3562.29837	-0.01404
3560.36968	-0.01520
3558.44098	-0.01581
3556.51229	-0.01594
3554.58359	-0.01577
3552.65490	-0.01546
3550.72621	-0.01511
3548.79751	-0.01475
3546.86882	-0.01454
3544.94012	-0.01471
3543.01143	-0.01529
3541.08273	-0.01592
3539.15404	-0.01631
3537.22535	-0.01642
3535.29665	-0.01636
3533.36796	-0.01615
3531.43926	-0.01576
3529.51057	-0.01529
3527.58187	-0.01496
3525.65318	-0.01496
3523.72449	-0.01530
3521.79579	-0.01583
3519.86710	-0.01636
3517.93840	-0.01675
3516.00971	-0.01690
3514.08101	-0.01677
3512.15232	-0.01648
3510.22362	-0.01615
3508.29493	-0.01588
3506.36624	-0.01567
3504.43754	-0.01557
3502.50885	-0.01569
3500.58015	-0.01603
3498.65146	-0.01643
3496.72276	-0.01673
3494.79407	-0.01692
3492.86538	-0.01702
3490.93668	-0.01701
3489.00799	-0.01692
3487.07929	-0.01677
3485.15060	-0.01664
3483.22190	-0.01657
3481.29321	-0.01661
3479.36452	-0.01676
3477.43582	-0.01696
3475.50713	-0.01714
3473.57843	-0.01725
3471.64974	-0.01730
3469.72104	-0.01726
3467.79235	-0.01713
3465.86366	-0.01699
3463.93496	-0.01692
3462.00627	-0.01699
3460.07757	-0.01715
3458.14888	-0.01733
3456.22018	-0.01743
3454.29149	-0.01740
3452.36280	-0.01722
3450.43410	-0.01694
3448.50541	-0.01665
3446.57671	-0.01652
3444.64802	-0.01659
3442.71932	-0.01679
3440.79063	-0.01700
3438.86194	-0.01714
3436.93324	-0.01721
3435.00455	-0.01724
3433.07585	-0.01727
3431.14716	-0.01732
3429.21846	-0.01736
3427.28977	-0.01734
3425.36108	-0.01721
3423.43238	-0.01702
3421.50369	-0.01688
3419.57499	-0.01690
3417.64630	-0.01706
3415.71760	-0.01728
3413.78891	-0.01746
3411.86022	-0.01755
3409.93152	-0.01756
3408.00283	-0.01753
3406.07413	-0.01746
3404.14544	-0.01738
3402.21674	-0.01731
3400.28805	-0.01722
3398.35936	-0.01714
3396.43066	-0.01708
3394.50197	-0.01707
3392.57327	-0.01712
3390.64458	-0.01718
3388.71588	-0.01724
3386.78719	-0.01727
3384.85850	-0.01730
3382.92980	-0.01735
3381.00111	-0.01742
3379.07241	-0.01748
3377.14372	-0.01752
3375.21502	-0.01754
3373.28633	-0.01753
3371.35764	-0.01746
3369.42894	-0.01735
3367.50025	-0.01725
3365.57155	-0.01719
3363.64286	-0.01719
3361.71416	-0.01722
3359.78547	-0.01724
3357.85678	-0.01726
3355.92808	-0.01729
3353.99939	-0.01736
3352.07069	-0.01743
3350.14200	-0.01749
3348.21330	-0.01751
3346.28461	-0.01750
3344.35592	-0.01747
3342.42722	-0.01742
3340.49853	-0.01737
3338.56983	-0.01732
3336.64114	-0.01730
3334.71244	-0.01732
3332.78375	-0.01736
3330.85506	-0.01739
3328.92636	-0.01741
3326.99767	-0.01742
3325.06897	-0.01742
3323.14028	-0.01743
3321.21158	-0.01744
3319.28289	-0.01745
3317.35420	-0.01744
3315.42550	-0.01741
3313.49681	-0.01739
3311.56811	-0.01738
3309.63942	-0.01738
3307.71072	-0.01739
3305.78203	-0.01742
3303.85333	-0.01745
3301.92464	-0.01748
3299.99595	-0.01749
3298.06725	-0.01749
3296.13856	-0.01747
3294.20986	-0.01745
3292.28117	-0.01744
3290.35247	-0.01745
3288.42378	-0.01746
3286.49509	-0.01746
3284.56639	-0.01743
3282.63770	-0.01739
3280.70900	-0.01735
3278.78031	-0.01732
3276.85161	-0.01730
3274.92292	-0.01728
3272.99423	-0.01730
3271.06553	-0.01732
3269.13684	-0.01732
3267.20814	-0.01730
3265.27945	-0.01727
3263.35075	-0.01725
3261.42206	-0.01723
3259.49337	-0.01722
3257.56467	-0.01722
3255.63598	-0.01724
3253.70728	-0.01729
3251.77859	-0.01735
3249.84989	-0.01740
3247.92120	-0.01742
3245.99251	-0.01742
3244.06381	-0.01739
3242.13512	-0.01738
3240.20642	-0.01740
3238.27773	-0.01745
3236.34903	-0.01746
3234.42034	-0.01741
3232.49165	-0.01732
3230.56295	-0.01725
3228.63426	-0.01723
3226.70556	-0.01725
3224.77687	-0.01728
3222.84817	-0.01730
3220.91948	-0.01728
3218.99079	-0.01725
3217.06209	-0.01720
3215.13340	-0.01715
3213.20470	-0.01713
3211.27601	-0.01715
3209.34731	-0.01720
3207.41862	-0.01726
3205.48993	-0.01732
3203.56123	-0.01737
3201.63254	-0.01738
3199.70384	-0.01735
3197.77515	-0.01731
3195.84645	-0.01730
3193.91776	-0.01733
3191.98907	-0.01736
3190.06037	-0.01736
3188.13168	-0.01732
3186.20298	-0.01727
3184.27429	-0.01725
3182.34559	-0.01725
3180.41690	-0.01727
3178.48821	-0.01729
3176.55951	-0.01733
3174.63082	-0.01737
3172.70212	-0.01740
3170.77343	-0.01739
3168.84473	-0.01737
3166.91604	-0.01736
3164.98735	-0.01734
3163.05865	-0.01733
3161.12996	-0.01731
3159.20126	-0.01729
3157.27257	-0.01728
3155.34387	-0.01731
3153.41518	-0.01735
3151.48649	-0.01741
3149.55779	-0.01745
3147.62910	-0.01746
3145.70040	-0.01745
3143.77171	-0.01743
3141.84301	-0.01744
3139.91432	-0.01746
3137.98563	-0.01747
3136.05693	-0.01744
3134.12824	-0.01740
3132.19954	-0.01737
3130.27085	-0.01735
3128.34215	-0.01732
3126.41346	-0.01726
3124.48477	-0.01720
3122.55607	-0.01714
3120.62738	-0.01711
3118.69868	-0.01709
3116.76999	-0.01709
3114.84129	-0.01713
3112.91260	-0.01721
3110.98390	-0.01730
3109.05521	-0.01736
3107.12652	-0.01737
3105.19782	-0.01734
3103.26913	-0.01729
3101.34043	-0.01725
3099.41174	-0.01721
3097.48304	-0.01717
3095.55435	-0.01717
3093.62566	-0.01723
3091.69696	-0.01733
3089.76827	-0.01742
3087.83957	-0.01744
3085.91088	-0.01742
3083.98218	-0.01736
3082.05349	-0.01730
3080.12480	-0.01727
3078.19610	-0.01727
3076.26741	-0.01729
3074.33871	-0.01732
3072.41002	-0.01733
3070.48132	-0.01732
3068.55263	-0.01729
3066.62394	-0.01724
3064.69524	-0.01722
3062.76655	-0.01721
3060.83785	-0.01720
3058.90916	-0.01718
3056.98046	-0.01719
3055.05177	-0.01723
3053.12308	-0.01728
3051.19438	-0.01730
3049.26569	-0.01730
3047.33699	-0.01729
3045.40830	-0.01729
3043.47960	-0.01727
3041.55091	-0.01722
3039.62222	-0.01713
3037.69352	-0.01700
3035.76483	-0.01683
3033.83613	-0.01666
3031.90744	-0.01654
3029.97874	-0.01646
3028.05005	-0.01640
3026.12136	-0.01632
3024.19266	-0.01621
3022.26397	-0.01607
3020.33527	-0.01591
3018.40658	-0.01572
3016.47788	-0.01551
3014.54919	-0.01527
3012.62050	-0.01502
3010.69180	-0.01477
3008.76311	-0.01452
3006.83441	-0.01428
3004.90572	-0.01406
3002.97702	-0.01387
3001.04833	-0.01368
2999.11964	-0.01350
2997.19094	-0.01330
2995.26225	-0.01309
2993.33355	-0.01284
2991.40486	-0.01255
2989.47616	-0.01227
2987.54747	-0.01208
2985.61878	-0.01203
2983.69008	-0.01209
2981.76139	-0.01219
2979.83269	-0.01226
2977.90400	-0.01227
2975.97530	-0.01222
2974.04661	-0.01216
2972.11792	-0.01215
2970.18922	-0.01221
2968.26053	-0.01234
2966.33183	-0.01251
2964.40314	-0.01268
2962.47444	-0.01282
2960.54575	-0.01292
2958.61706	-0.01303
2956.68836	-0.01316
2954.75967	-0.01330
2952.83097	-0.01342
2950.90228	-0.01352
2948.97358	-0.01362
2947.04489	-0.01371
2945.11620	-0.01378
2943.18750	-0.01382
2941.25881	-0.01382
2939.33011	-0.01382
2937.40142	-0.01383
2935.47272	-0.01383
2933.54403	-0.01383
2931.61534	-0.01381
2929.68664	-0.01378
2927.75795	-0.01374
2925.82925	-0.01371
2923.90056	-0.01369
2921.97186	-0.01370
2920.04317	-0.01372
2918.11448	-0.01371
2916.18578	-0.01366
2914.25709	-0.01355
2912.32839	-0.01342
2910.39970	-0.01333
2908.47100	-0.01325
2906.54231	-0.01315
2904.61361	-0.01302
2902.68492	-0.01289
2900.75623	-0.01285
2898.82753	-0.01294
2896.89884	-0.01311
2894.97014	-0.01330
2893.04145	-0.01344
2891.11275	-0.01353
2889.18406	-0.01359
2887.25537	-0.01365
2885.32667	-0.01374
2883.39798	-0.01382
2881.46928	-0.01390
2879.54059	-0.01399
2877.61189	-0.01409
2875.68320	-0.01420
2873.75451	-0.01432
2871.82581	-0.01445
2869.89712	-0.01458
2867.96842	-0.01472
2866.03973	-0.01487
2864.11103	-0.01503
2862.18234	-0.01518
2860.25365	-0.01530
2858.32495	-0.01541
2856.39626	-0.01552
2854.46756	-0.01562
2852.53887	-0.01573
2850.61017	-0.01585
2848.68148	-0.01599
2846.75279	-0.01615
2844.82409	-0.01631
2842.89540	-0.01644
2840.96670	-0.01652
2839.03801	-0.01656
2837.10931	-0.01657
2835.18062	-0.01658
2833.25193	-0.01658
2831.32323	-0.01659
2829.39454	-0.01659
2827.46584	-0.01661
2825.53715	-0.01665
2823.60845	-0.01669
2821.67976	-0.01672
2819.75107	-0.01673
2817.82237	-0.01673
2815.89368	-0.01673
2813.96498	-0.01674
2812.03629	-0.01677
2810.10759	-0.01681
2808.17890	-0.01686
2806.25021	-0.01689
2804.32151	-0.01692
2802.39282	-0.01694
2800.46412	-0.01696
2798.53543	-0.01696
2796.60673	-0.01697
2794.67804	-0.01699
2792.74935	-0.01701
2790.82065	-0.01703
2788.89196	-0.01703
2786.96326	-0.01700
2785.03457	-0.01695
2783.10587	-0.01691
2781.17718	-0.01688
2779.24849	-0.01688
2777.31979	-0.01690
2775.39110	-0.01693
2773.46240	-0.01696
2771.53371	-0.01698
2769.60501	-0.01699
2767.67632	-0.01700
2765.74763	-0.01701
2763.81893	-0.01703
2761.89024	-0.01703
2759.96154	-0.01703
2758.03285	-0.01702
2756.10415	-0.01702
2754.17546	-0.01705
2752.24677	-0.01708
2750.31807	-0.01711
2748.38938	-0.01709
2746.46068	-0.01705
2744.53199	-0.01702
2742.60329	-0.01702
2740.67460	-0.01705
2738.74591	-0.01709
2736.81721	-0.01713
2734.88852	-0.01714
2732.95982	-0.01714
2731.03113	-0.01713
2729.10243	-0.01713
2727.17374	-0.01713
2725.24505	-0.01712
2723.31635	-0.01712
2721.38766	-0.01713
2719.45896	-0.01716
2717.53027	-0.01718
2715.60157	-0.01718
2713.67288	-0.01718
2711.74419	-0.01718
2709.81549	-0.01718
2707.88680	-0.01718
2705.95810	-0.01717
2704.02941	-0.01716
2702.10071	-0.01716
2700.17202	-0.01717
2698.24332	-0.01720
2696.31463	-0.01722
2694.38594	-0.01723
2692.45724	-0.01723
2690.52855	-0.01722
2688.59985	-0.01721
2686.67116	-0.01721
2684.74246	-0.01722
2682.81377	-0.01723
2680.88508	-0.01723
2678.95638	-0.01723
2677.02769	-0.01724
2675.09899	-0.01725
2673.17030	-0.01727
2671.24160	-0.01727
2669.31291	-0.01728
2667.38422	-0.01727
2665.45552	-0.01726
2663.52683	-0.01723
2661.59813	-0.01721
2659.66944	-0.01718
2657.74074	-0.01717
2655.81205	-0.01717
2653.88336	-0.01719
2651.95466	-0.01721
2650.02597	-0.01724
2648.09727	-0.01724
2646.16858	-0.01722
2644.23988	-0.01721
2642.31119	-0.01722
2640.38250	-0.01726
2638.45380	-0.01731
2636.52511	-0.01733
2634.59641	-0.01730
2632.66772	-0.01726
2630.73902	-0.01722
2628.81033	-0.01721
2626.88164	-0.01720
2624.95294	-0.01719
2623.02425	-0.01718
2621.09555	-0.01716
2619.16686	-0.01715
2617.23816	-0.01717
2615.30947	-0.01722
2613.38078	-0.01727
2611.45208	-0.01731
2609.52339	-0.01732
2607.59469	-0.01732
2605.66600	-0.01729
2603.73730	-0.01726
2601.80861	-0.01723
2599.87992	-0.01722
2597.95122	-0.01722
2596.02253	-0.01723
2594.09383	-0.01725
2592.16514	-0.01726
2590.23644	-0.01727
2588.30775	-0.01727
2586.37906	-0.01727
2584.45036	-0.01727
2582.52167	-0.01727
2580.59297	-0.01728
2578.66428	-0.01728
2576.73558	-0.01729
2574.80689	-0.01730
2572.87820	-0.01730
2570.94950	-0.01731
2569.02081	-0.01731
2567.09211	-0.01732
2565.16342	-0.01732
2563.23472	-0.01730
2561.30603	-0.01727
2559.37734	-0.01723
2557.44864	-0.01722
2555.51995	-0.01723
2553.59125	-0.01724
2551.66256	-0.01724
2549.73386	-0.01723
2547.80517	-0.01723
2545.87648	-0.01725
2543.94778	-0.01725
2542.01909	-0.01724
2540.09039	-0.01723
2538.16170	-0.01721
2536.23300	-0.01722
2534.30431	-0.01723
2532.37562	-0.01725
2530.44692	-0.01725
2528.51823	-0.01726
2526.58953	-0.01727
2524.66084	-0.01727
2522.73214	-0.01727
2520.80345	-0.01726
2518.87476	-0.01725
2516.94606	-0.01725
2515.01737	-0.01726
2513.08867	-0.01727
2511.15998	-0.01727
2509.23128	-0.01725
2507.30259	-0.01723
2505.37389	-0.01720
2503.44520	-0.01718
2501.51651	-0.01719
2499.58781	-0.01720
2497.65912	-0.01721
2495.73042	-0.01721
2493.80173	-0.01720
2491.87303	-0.01720
2489.94434	-0.01722
2488.01565	-0.01724
2486.08695	-0.01726
2484.15826	-0.01724
2482.22956	-0.01721
2480.30087	-0.01718
2478.37217	-0.01715
2476.44348	-0.01713
2474.51479	-0.01712
2472.58609	-0.01713
2470.65740	-0.01714
2468.72870	-0.01717
2466.80001	-0.01718
2464.87131	-0.01718
2462.94262	-0.01716
2461.01393	-0.01714
2459.08523	-0.01713
2457.15654	-0.01714
2455.22784	-0.01716
2453.29915	-0.01719
2451.37045	-0.01720
2449.44176	-0.01720
2447.51307	-0.01718
2445.58437	-0.01716
2443.65568	-0.01715
2441.72698	-0.01714
2439.79829	-0.01713
2437.86959	-0.01713
2435.94090	-0.01714
2434.01221	-0.01715
2432.08351	-0.01717
2430.15482	-0.01719
2428.22612	-0.01721
2426.29743	-0.01722
2424.36873	-0.01724
2422.44004	-0.01726
2420.51135	-0.01727
2418.58265	-0.01725
2416.65396	-0.01721
2414.72526	-0.01717
2412.79657	-0.01716
2410.86787	-0.01715
2408.93918	-0.01715
2407.01049	-0.01715
2405.08179	-0.01715
2403.15310	-0.01715
2401.22440	-0.01716
2399.29571	-0.01718
2397.36701	-0.01718
2395.43832	-0.01717
2393.50963	-0.01713
2391.58093	-0.01704
2389.65224	-0.01684
2387.72354	-0.01644
2385.79485	-0.01574
2383.86615	-0.01467
2381.93746	-0.01323
2380.00877	-0.01144
2378.08007	-0.00933
2376.15138	-0.00685
2374.22268	-0.00400
2372.29399	-0.00079
2370.36529	0.00264
2368.43660	0.00611
2366.50791	0.00938
2364.57921	0.01216
2362.65052	0.01407
2360.72182	0.01472
2358.79313	0.01378
2356.86443	0.01119
2354.93574	0.00759
2353.00705	0.00418
2351.07835	0.00187
2349.14966	0.00095
2347.22096	0.00138
2345.29227	0.00295
2343.36357	0.00498
2341.43488	0.00632
2339.50619	0.00650
2337.57749	0.00603
2335.64880	0.00545
2333.72010	0.00489
2331.79141	0.00423
2329.86271	0.00335
2327.93402	0.00221
2326.00533	0.00091
2324.07663	-0.00050
2322.14794	-0.00199
2320.21924	-0.00351
2318.29055	-0.00493
2316.36185	-0.00617
2314.43316	-0.00719
2312.50447	-0.00805
2310.57577	-0.00890
2308.64708	-0.00979
2306.71838	-0.01069
2304.78969	-0.01150
2302.86099	-0.01216
2300.93230	-0.01270
2299.00360	-0.01318
2297.07491	-0.01367
2295.14622	-0.01416
2293.21752	-0.01464
2291.28883	-0.01510
2289.36013	-0.01552
2287.43144	-0.01588
2285.50274	-0.01616
2283.57405	-0.01632
2281.64536	-0.01636
2279.71666	-0.01630
2277.78797	-0.01621
2275.85927	-0.01613
2273.93058	-0.01609
2272.00188	-0.01609
2270.07319	-0.01612
2268.14450	-0.01616
2266.21580	-0.01621
2264.28711	-0.01626
2262.35841	-0.01631
2260.42972	-0.01637
2258.50102	-0.01643
2256.57233	-0.01650
2254.64364	-0.01658
2252.71494	-0.01666
2250.78625	-0.01674
2248.85755	-0.01680
2246.92886	-0.01685
2245.00016	-0.01689
2243.07147	-0.01691
2241.14278	-0.01691
2239.21408	-0.01690
2237.28539	-0.01690
2235.35669	-0.01692
2233.42800	-0.01694
2231.49930	-0.01696
2229.57061	-0.01697
2227.64192	-0.01699
2225.71322	-0.01702
2223.78453	-0.01705
2221.85583	-0.01707
2219.92714	-0.01708
2217.99844	-0.01709
2216.06975	-0.01710
2214.14106	-0.01711
2212.21236	-0.01710
2210.28367	-0.01709
2208.35497	-0.01708
2206.42628	-0.01708
2204.49758	-0.01708
2202.56889	-0.01709
2200.64020	-0.01709
2198.71150	-0.01709
2196.78281	-0.01710
2194.85411	-0.01710
2192.92542	-0.01709
2190.99672	-0.01707
2189.06803	-0.01706
2187.13934	-0.01705
2185.21064	-0.01705
2183.28195	-0.01705
2181.35325	-0.01707
2179.42456	-0.01710
2177.49586	-0.01712
2175.56717	-0.01714
2173.63848	-0.01714
2171.70978	-0.01712
2169.78109	-0.01709
2167.85239	-0.01707
2165.92370	-0.01704
2163.99500	-0.01704
2162.06631	-0.01705
2160.13762	-0.01708
2158.20892	-0.01712
2156.28023	-0.01716
2154.35153	-0.01717
2152.42284	-0.01717
2150.49414	-0.01715
2148.56545	-0.01713
2146.63676	-0.01712
2144.70806	-0.01711
2142.77937	-0.01711
2140.85067	-0.01710
2138.92198	-0.01709
2136.99328	-0.01709
2135.06459	-0.01710
2133.13590	-0.01711
2131.20720	-0.01712
2129.27851	-0.01713
2127.34981	-0.01713
2125.42112	-0.01715
2123.49242	-0.01715
2121.56373	-0.01714
2119.63504	-0.01711
2117.70634	-0.01708
2115.77765	-0.01706
2113.84895	-0.01706
2111.92026	-0.01709
2109.99156	-0.01711
2108.06287	-0.01712
2106.13417	-0.01711
2104.20548	-0.01710
2102.27679	-0.01709
2100.34809	-0.01708
2098.41940	-0.01707
2096.49070	-0.01707
2094.56201	-0.01706
2092.63331	-0.01703
2090.70462	-0.01701
2088.77593	-0.01702
2086.84723	-0.01707
2084.91854	-0.01712
2082.98984	-0.01715
2081.06115	-0.01714
2079.13245	-0.01711
2077.20376	-0.01709
2075.27507	-0.01709
2073.34637	-0.01710
2071.41768	-0.01710
2069.48898	-0.01705
2067.56029	-0.01695
2065.63159	-0.01689
2063.70290	-0.01690
2061.77421	-0.01698
2059.84551	-0.01707
2057.91682	-0.01713
2055.98812	-0.01717
2054.05943	-0.01719
2052.13073	-0.01720
2050.20204	-0.01718
2048.27335	-0.01712
2046.34465	-0.01705
2044.41596	-0.01696
2042.48726	-0.01691
2040.55857	-0.01692
2038.62987	-0.01699
2036.70118	-0.01708
2034.77249	-0.01714
2032.84379	-0.01716
2030.91510	-0.01715
2028.98640	-0.01713
2027.05771	-0.01710
2025.12901	-0.01706
2023.20032	-0.01697
2021.27163	-0.01682
2019.34293	-0.01667
2017.41424	-0.01661
2015.48554	-0.01668
2013.55685	-0.01684
2011.62815	-0.01696
2009.69946	-0.01703
2007.77077	-0.01706
2005.84207	-0.01708
2003.91338	-0.01709
2001.98468	-0.01708
2000.05599	-0.01703
1998.12729	-0.01693
1996.19860	-0.01674
1994.26991	-0.01649
1992.34121	-0.01629
1990.41252	-0.01628
1988.48382	-0.01647
1986.55513	-0.01672
1984.62643	-0.01693
1982.69774	-0.01706
1980.76905	-0.01712
1978.84035	-0.01713
1976.91166	-0.01711
1974.98296	-0.01707
1973.05427	-0.01696
1971.12557	-0.01672
1969.19688	-0.01644
1967.26819	-0.01628
1965.33949	-0.01634
1963.41080	-0.01656
1961.48210	-0.01676
1959.55341	-0.01686
1957.62471	-0.01688
1955.69602	-0.01687
1953.76733	-0.01687
1951.83863	-0.01686
1949.90994	-0.01676
1947.98124	-0.01647
1946.05255	-0.01603
1944.12385	-0.01566
1942.19516	-0.01563
1940.26647	-0.01599
1938.33777	-0.01646
1936.40908	-0.01679
1934.48038	-0.01691
1932.55169	-0.01693
1930.62299	-0.01690
1928.69430	-0.01677
1926.76561	-0.01645
1924.83691	-0.01600
1922.90822	-0.01555
1920.97952	-0.01529
1919.05083	-0.01532
1917.12213	-0.01561
1915.19344	-0.01595
1913.26475	-0.01613
1911.33605	-0.01611
1909.40736	-0.01607
1907.47866	-0.01620
1905.54997	-0.01648
1903.62127	-0.01673
1901.69258	-0.01683
1899.76388	-0.01675
1897.83519	-0.01655
1895.90650	-0.01628
1893.97780	-0.01599
1892.04911	-0.01572
1890.12041	-0.01560
1888.19172	-0.01573
1886.26302	-0.01606
1884.33433	-0.01642
1882.40564	-0.01668
1880.47694	-0.01682
1878.54825	-0.01687
1876.61955	-0.01679
1874.69086	-0.01638
1872.76216	-0.01551
1870.83347	-0.01441
1868.90478	-0.01371
1866.97608	-0.01398
1865.04739	-0.01494
1863.11869	-0.01589
1861.19000	-0.01644
1859.26130	-0.01667
1857.33261	-0.01678
1855.40392	-0.01682
1853.47522	-0.01673
1851.54653	-0.01636
1849.61783	-0.01562
1847.68914	-0.01463
1845.76044	-0.01386
1843.83175	-0.01382
1841.90306	-0.01447
1839.97436	-0.01527
1838.04567	-0.01576
1836.11697	-0.01578
1834.18828	-0.01532
1832.25958	-0.01449
1830.33089	-0.01365
1828.40220	-0.01330
1826.47350	-0.01366
1824.54481	-0.01449
1822.61611	-0.01537
1820.68742	-0.01602
1818.75872	-0.01635
1816.83003	-0.01633
1814.90134	-0.01599
1812.97264	-0.01550
1811.04395	-0.01514
1809.11525	-0.01510
1807.18656	-0.01521
1805.25786	-0.01509
1803.32917	-0.01458
1801.40048	-0.01395
1799.47178	-0.01348
1797.54309	-0.01313
1795.61439	-0.01268
1793.68570	-0.01229
1791.75700	-0.01249
1789.82831	-0.01338
1787.89962	-0.01435
1785.97092	-0.01483
1784.04223	-0.01475
1782.11353	-0.01443
1780.18484	-0.01412
1778.25614	-0.01368
1776.32745	-0.01280
1774.39876	-0.01152
1772.47006	-0.01061
1770.54137	-0.01092
1768.61267	-0.01219
1766.68398	-0.01336
1764.75528	-0.01382
1762.82659	-0.01370
1760.89790	-0.01346
1758.96920	-0.01342
1757.04051	-0.01345
1755.11181	-0.01310
1753.18312	-0.01206
1751.25442	-0.01059
1749.32573	-0.00951
1747.39704	-0.00943
1745.46834	-0.01002
1743.53965	-0.01062
1741.61095	-0.01091
1739.68226	-0.01083
1737.75356	-0.01032
1735.82487	-0.00954
1733.89618	-0.00925
1731.96748	-0.01017
1730.03879	-0.01194
1728.11009	-0.01357
1726.18140	-0.01447
1724.25270	-0.01445
1722.32401	-0.01343
1720.39532	-0.01144
1718.46662	-0.00913
1716.53793	-0.00810
1714.60923	-0.00915
1712.68054	-0.01092
1710.75184	-0.01193
1708.82315	-0.01177
1706.89446	-0.01073
1704.96576	-0.00933
1703.03707	-0.00785
1701.10837	-0.00642
1699.17968	-0.00570
1697.25098	-0.00663
1695.32229	-0.00880
1693.39359	-0.01074
1691.46490	-0.01154
1689.53621	-0.01102
1687.60751	-0.00943
1685.67882	-0.00756
1683.75012	-0.00695
1681.82143	-0.00811
1679.89273	-0.00975
1677.96404	-0.01073
1676.03535	-0.01076
1674.10665	-0.01011
1672.17796	-0.00945
1670.24926	-0.00953
1668.32057	-0.01047
1666.39187	-0.01163
1664.46318	-0.01249
1662.53449	-0.01299
1660.60579	-0.01317
1658.67710	-0.01272
1656.74840	-0.01126
1654.81971	-0.00885
1652.89101	-0.00659
1650.96232	-0.00571
1649.03363	-0.00613
1647.10493	-0.00753
1645.17624	-0.00967
1643.24754	-0.01159
1641.31885	-0.01226
1639.39015	-0.01152
1637.46146	-0.01025
1635.53277	-0.01004
1633.60407	-0.01133
1631.67538	-0.01277
1629.74668	-0.01329
1627.81799	-0.01290
1625.88929	-0.01220
1623.96060	-0.01179
1622.03191	-0.01174
1620.10321	-0.01176
1618.17452	-0.01184
1616.24582	-0.01232
1614.31713	-0.01327
1612.38843	-0.01418
1610.45974	-0.01470
1608.53105	-0.01489
1606.60235	-0.01501
1604.67366	-0.01521
1602.74496	-0.01546
1600.81627	-0.01567
1598.88757	-0.01577
1596.95888	-0.01577
1595.03019	-0.01572
1593.10149	-0.01576
1591.17280	-0.01592
1589.24410	-0.01611
1587.31541	-0.01626
1585.38671	-0.01629
1583.45802	-0.01605
1581.52933	-0.01531
1579.60063	-0.01401
1577.67194	-0.01255
1575.74324	-0.01159
1573.81455	-0.01133
1571.88585	-0.01131
1569.95716	-0.01128
1568.02847	-0.01133
1566.09977	-0.01136
1564.17108	-0.01077
1562.24238	-0.00897
1560.31369	-0.00614
1558.38499	-0.00431
1556.45630	-0.00532
1554.52761	-0.00769
1552.59891	-0.00958
1550.67022	-0.01053
1548.74152	-0.01045
1546.81283	-0.00916
1544.88413	-0.00656
1542.95544	-0.00329
1541.02675	-0.00159
1539.09805	-0.00300
1537.16936	-0.00564
1535.24066	-0.00761
1533.31197	-0.00874
1531.38327	-0.00926
1529.45458	-0.00911
1527.52589	-0.00811
1525.59719	-0.00636
1523.66850	-0.00445
1521.73980	-0.00329
1519.81111	-0.00353
1517.88241	-0.00499
1515.95372	-0.00675
1514.02503	-0.00776
1512.09633	-0.00737
1510.16764	-0.00565
1508.23894	-0.00403
1506.31025	-0.00490
1504.38155	-0.00770
1502.45286	-0.00986
1500.52416	-0.01059
1498.59547	-0.01056
1496.66678	-0.01061
1494.73808	-0.01076
1492.80939	-0.01046
1490.88069	-0.00978
1488.95200	-0.00970
1487.02330	-0.01088
1485.09461	-0.01261
1483.16592	-0.01382
1481.23722	-0.01407
1479.30853	-0.01337
1477.37983	-0.01185
1475.45114	-0.01008
1473.52244	-0.00925
1471.59375	-0.01007
1469.66506	-0.01161
1467.73636	-0.01265
1465.80767	-0.01290
1463.87897	-0.01250
1461.95028	-0.01144
1460.02158	-0.00973
1458.09289	-0.00819
1456.16420	-0.00836
1454.23550	-0.01016
1452.30681	-0.01199
1450.37811	-0.01305
1448.44942	-0.01362
1446.52072	-0.01417
1444.59203	-0.01472
1442.66334	-0.01492
1440.73464	-0.01449
1438.80595	-0.01358
1436.87725	-0.01276
1434.94856	-0.01253
1433.01986	-0.01279
1431.09117	-0.01314
1429.16248	-0.01334
1427.23378	-0.01334
1425.30509	-0.01300
1423.37639	-0.01227
1421.44770	-0.01132
1419.51900	-0.01075
1417.59031	-0.01111
1415.66162	-0.01213
1413.73292	-0.01310
1411.80423	-0.01358
1409.87553	-0.01353
1407.94684	-0.01320
1406.01814	-0.01283
1404.08945	-0.01250
1402.16076	-0.01204
1400.23206	-0.01129
1398.30337	-0.01041
1396.37467	-0.01002
1394.44598	-0.01050
1392.51728	-0.01145
1390.58859	-0.01218
1388.65990	-0.01254
1386.73120	-0.01281
1384.80251	-0.01323
1382.87381	-0.01366
1380.94512	-0.01376
1379.01642	-0.01341
1377.08773	-0.01285
1375.15904	-0.01250
1373.23034	-0.01270
1371.30165	-0.01331
1369.37295	-0.01386
1367.44426	-0.01397
1365.51556	-0.01367
1363.58687	-0.01337
1361.65818	-0.01353
1359.72948	-0.01416
1357.80079	-0.01489
1355.87209	-0.01540
1353.94340	-0.01565
1352.01470	-0.01578
1350.08601	-0.01588
1348.15732	-0.01596
1346.22862	-0.01588
1344.29993	-0.01549
1342.37123	-0.01479
1340.44254	-0.01411
1338.51384	-0.01398
1336.58515	-0.01451
1334.65646	-0.01531
1332.72776	-0.01592
1330.79907	-0.01620
1328.87037	-0.01626
1326.94168	-0.01622
1325.01298	-0.01609
1323.08429	-0.01585
1321.15560	-0.01554
1319.22690	-0.01531
1317.29821	-0.01525
1315.36951	-0.01537
1313.44082	-0.01558
1311.51212	-0.01579
1309.58343	-0.01598
1307.65474	-0.01613
1305.72604	-0.01622
1303.79735	-0.01626
1301.86865	-0.01626
1299.93996	-0.01624
1298.01126	-0.01623
1296.08257	-0.01625
1294.15387	-0.01625
1292.22518	-0.01621
1290.29649	-0.01612
1288.36779	-0.01605
1286.43910	-0.01605
1284.51040	-0.01609
1282.58171	-0.01610
1280.65301	-0.01607
1278.72432	-0.01600
1276.79563	-0.01591
1274.86693	-0.01578
1272.93824	-0.01562
1271.00954	-0.01546
1269.08085	-0.01535
1267.15215	-0.01529
1265.22346	-0.01522
1263.29477	-0.01514
1261.36607	-0.01504
1259.43738	-0.01498
1257.50868	-0.01493
1255.57999	-0.01489
1253.65129	-0.01485
1251.72260	-0.01481
1249.79391	-0.01481
1247.86521	-0.01482
1245.93652	-0.01481
1244.00782	-0.01479
1242.07913	-0.01480
1240.15043	-0.01486
1238.22174	-0.01493
1236.29305	-0.01494
1234.36435	-0.01490
1232.43566	-0.01481
1230.50696	-0.01475
1228.57827	-0.01472
1226.64957	-0.01475
1224.72088	-0.01481
1222.79219	-0.01492
1220.86349	-0.01505
1218.93480	-0.01518
1217.00610	-0.01530
1215.07741	-0.01541
1213.14871	-0.01553
1211.22002	-0.01565
1209.29133	-0.01576
1207.36263	-0.01585
1205.43394	-0.01589
1203.50524	-0.01588
1201.57655	-0.01586
1199.64785	-0.01585
1197.71916	-0.01587
1195.79047	-0.01591
1193.86177	-0.01594
1191.93308	-0.01597
1190.00438	-0.01601
1188.07569	-0.01606
1186.14699	-0.01612
1184.21830	-0.01616
1182.28961	-0.01617
1180.36091	-0.01616
1178.43222	-0.01613
1176.50352	-0.01611
1174.57483	-0.01609
1172.64613	-0.01608
1170.71744	-0.01607
1168.78875	-0.01607
1166.86005	-0.01611
1164.93136	-0.01615
1163.00266	-0.01620
1161.07397	-0.01624
1159.14527	-0.01626
1157.21658	-0.01628
1155.28789	-0.01627
1153.35919	-0.01626
1151.43050	-0.01625
1149.50180	-0.01625
1147.57311	-0.01624
1145.64441	-0.01624
1143.71572	-0.01622
1141.78703	-0.01620
1139.85833	-0.01617
1137.92964	-0.01612
1136.00094	-0.01606
1134.07225	-0.01598
1132.14355	-0.01589
1130.21486	-0.01584
1128.28617	-0.01582
1126.35747	-0.01584
1124.42878	-0.01585
1122.50008	-0.01581
1120.57139	-0.01571
1118.64269	-0.01558
1116.71400	-0.01543
1114.78531	-0.01527
1112.85661	-0.01512
1110.92792	-0.01497
1108.99922	-0.01484
1107.07053	-0.01471
1105.14183	-0.01457
1103.21314	-0.01442
1101.28444	-0.01427
1099.35575	-0.01413
1097.42706	-0.01399
1095.49836	-0.01383
1093.56967	-0.01362
1091.64097	-0.01333
1089.71228	-0.01298
1087.78358	-0.01261
1085.85489	-0.01222
1083.92620	-0.01180
1081.99750	-0.01137
1080.06881	-0.01097
1078.14011	-0.01065
1076.21142	-0.01046
1074.28272	-0.01038
1072.35403	-0.01036
1070.42534	-0.01032
1068.49664	-0.01024
1066.56795	-0.01019
1064.63925	-0.01023
1062.71056	-0.01030
1060.78186	-0.01028
1058.85317	-0.01016
1056.92448	-0.01004
1054.99578	-0.01001
1053.06709	-0.01010
1051.13839	-0.01023
1049.20970	-0.01037
1047.28100	-0.01053
1045.35231	-0.01074
1043.42362	-0.01100
1041.49492	-0.01129
1039.56623	-0.01157
1037.63753	-0.01188
1035.70884	-0.01224
1033.78014	-0.01265
1031.85145	-0.01301
1029.92276	-0.01326
1027.99406	-0.01345
1026.06537	-0.01366
1024.13667	-0.01391
1022.20798	-0.01413
1020.27928	-0.01428
1018.35059	-0.01440
1016.42190	-0.01452
1014.49320	-0.01467
1012.56451	-0.01481
1010.63581	-0.01494
1008.70712	-0.01505
1006.77842	-0.01516
1004.84973	-0.01528
1002.92104	-0.01542
1000.99234	-0.01555
999.06365	-0.01569
997.13495	-0.01583
995.20626	-0.01595
993.27756	-0.01605
991.34887	-0.01611
989.42018	-0.01613
987.49148	-0.01615
985.56279	-0.01619
983.63409	-0.01625
981.70540	-0.01632
979.77670	-0.01636
977.84801	-0.01639
975.91932	-0.01639
973.99062	-0.01639
972.06193	-0.01638
970.13323	-0.01636
968.20454	-0.01635
966.27584	-0.01636
964.34715	-0.01641
962.41846	-0.01647
960.48976	-0.01651
958.56107	-0.01650
956.63237	-0.01645
954.70368	-0.01638
952.77498	-0.01635
950.84629	-0.01637
948.91760	-0.01641
946.98890	-0.01645
945.06021	-0.01645
943.13151	-0.01642
941.20282	-0.01638
939.27412	-0.01637
937.34543	-0.01637
935.41674	-0.01639
933.48804	-0.01639
931.55935	-0.01638
929.63065	-0.01635
927.70196	-0.01633
925.77326	-0.01633
923.84457	-0.01633
921.91588	-0.01633
919.98718	-0.01632
918.05849	-0.01630
916.12979	-0.01626
914.20110	-0.01619
912.27240	-0.01610
910.34371	-0.01600
908.41502	-0.01590
906.48632	-0.01583
904.55763	-0.01580
902.62893	-0.01582
900.70024	-0.01586
898.77154	-0.01587
896.84285	-0.01584
894.91415	-0.01576
892.98546	-0.01570
891.05677	-0.01569
889.12807	-0.01572
887.19938	-0.01576
885.27068	-0.01576
883.34199	-0.01572
881.41329	-0.01572
879.48460	-0.01578
877.55591	-0.01589
875.62721	-0.01596
873.69852	-0.01596
871.76982	-0.01591
869.84113	-0.01587
867.91243	-0.01589
865.98374	-0.01599
864.05505	-0.01612
862.12635	-0.01623
860.19766	-0.01630
858.26896	-0.01638
856.34027	-0.01647
854.41157	-0.01659
852.48288	-0.01669
850.55419	-0.01676
848.62549	-0.01678
846.69680	-0.01677
844.76810	-0.01675
842.83941	-0.01673
840.91071	-0.01673
838.98202	-0.01676
837.05333	-0.01681
835.12463	-0.01688
833.19594	-0.01693
831.26724	-0.01692
829.33855	-0.01684
827.40985	-0.01675
825.48116	-0.01670
823.55247	-0.01670
821.62377	-0.01673
819.69508	-0.01676
817.76638	-0.01678
815.83769	-0.01679
813.90899	-0.01679
811.98030	-0.01678
810.05161	-0.01677
808.12291	-0.01675
806.19422	-0.01672
804.26552	-0.01670
802.33683	-0.01670
800.40813	-0.01676
798.47944	-0.01688
796.55075	-0.01699
794.62205	-0.01703
792.69336	-0.01699
790.76466	-0.01690
788.83597	-0.01680
786.90727	-0.01670
784.97858	-0.01660
783.04989	-0.01653
781.12119	-0.01652
779.19250	-0.01655
777.26380	-0.01659
775.33511	-0.01663
773.40641	-0.01668
771.47772	-0.01674
769.54903	-0.01680
767.62033	-0.01684
765.69164	-0.01685
763.76294	-0.01683
761.83425	-0.01682
759.90555	-0.01682
757.97686	-0.01680
756.04817	-0.01676
754.11947	-0.01671
752.19078	-0.01668
750.26208	-0.01664
748.33339	-0.01657
746.40469	-0.01648
744.47600	-0.01641
742.54731	-0.01641
740.61861	-0.01645
738.68992	-0.01650
736.76122	-0.01651
734.83253	-0.01650
732.90383	-0.01649
730.97514	-0.01650
729.04645	-0.01653
727.11775	-0.01657
725.18906	-0.01653
723.26036	-0.01641
721.33167	-0.01629
719.40297	-0.01626
717.47428	-0.01635
715.54559	-0.01648
713.61689	-0.01655
711.68820	-0.01650
709.75950	-0.01635
707.83081	-0.01614
705.90211	-0.01592
703.97342	-0.01574
702.04472	-0.01562
700.11603	-0.01551
698.18734	-0.01534
696.25864	-0.01507
694.32995	-0.01469
692.40125	-0.01424
690.47256	-0.01378
688.54386	-0.01336
686.61517	-0.01303
684.68648	-0.01281
682.75778	-0.01272
680.82909	-0.01275
678.90039	-0.01286
676.97170	-0.01292
675.04300	-0.01276
673.11431	-0.01230
671.18562	-0.01172
669.25692	-0.01155
667.32823	-0.01219
665.39953	-0.01313
663.47084	-0.01370
661.54214	-0.01382
659.61345	-0.01370
657.68476	-0.01352
655.75606	-0.01334
653.82737	-0.01314
651.89867	-0.01297
649.96998	-0.01294
648.04128	-0.01314
646.11259	-0.01354
644.18390	-0.01404
642.25520	-0.01453
640.32651	-0.01493
638.39781	-0.01520
636.46912	-0.01534
634.54042	-0.01545
632.61173	-0.01561
630.68304	-0.01581
628.75434	-0.01601
626.82565	-0.01617
624.89695	-0.01624
622.96826	-0.01616
621.03956	-0.01590
619.11087	-0.01559
617.18218	-0.01545
615.25348	-0.01556
613.32479	-0.01579
611.39609	-0.01597
609.46740	-0.01604
607.53870	-0.01601
605.61001	-0.01591
603.68132	-0.01577
601.75262	-0.01569
599.82393	-0.01568
597.89523	-0.01565
595.96654	-0.01555
594.03784	-0.01540
592.10915	-0.01539
590.18046	-0.01557
588.25176	-0.01580
586.32307	-0.01592
584.39437	-0.01584
582.46568	-0.01566
580.53698	-0.01545
578.60829	-0.01524
576.67960	-0.01509
574.75090	-0.01505
572.82221	-0.01510
570.89351	-0.01518
568.96482	-0.01523
567.03612	-0.01527
565.10743	-0.01534
563.17874	-0.01552
561.25004	-0.01578
559.32135	-0.01602
557.39265	-0.01612
555.46396	-0.01600
553.53526	-0.01569
551.60657	-0.01535
549.67788	-0.01518
547.74918	-0.01526
545.82049	-0.01549
543.89179	-0.01568
541.96310	-0.01576
540.03440	-0.01579
538.10571	-0.01576
536.17702	-0.01566
534.24832	-0.01553
532.31963	-0.01540
530.39093	-0.01524
528.46224	-0.01497
526.53354	-0.01463
524.60485	-0.01431
522.67616	-0.01407
520.74746	-0.01386
518.81877	-0.01362
516.89007	-0.01334
514.96138	-0.01322
513.03268	-0.01360
511.10399	-0.01457
509.17530	-0.01562
507.24660	-0.01597
505.31791	-0.01528
503.38921	-0.01401
501.46052	-0.01289
499.53182	-0.01220
