1999.61349	0.01883
2000.09568	0.01855
2000.57786	0.01847
2001.06004	0.01844
2001.54222	0.01842
2002.02441	0.01847
2002.50659	0.01862
2002.98877	0.01886
2003.47096	0.01907
2003.95314	0.01902
2004.43532	0.01878
2004.91751	0.01862
2005.39969	0.01859
2005.88187	0.01859
2006.36406	0.01864
2006.84624	0.01887
2007.32842	0.01932
2007.81061	0.01972
2008.29279	0.01978
2008.77497	0.01954
2009.25715	0.01917
2009.73934	0.01884
2010.22152	0.01867
2010.70370	0.01865
2011.18589	0.01879
2011.66807	0.01907
2012.15025	0.01939
2012.63244	0.01967
2013.11462	0.01982
2013.59680	0.01968
2014.07899	0.01929
2014.56117	0.01907
2015.04335	0.01921
2015.52554	0.01987
2016.00772	0.02144
2016.48990	0.02344
2016.97209	0.02398
2017.45427	0.02301
2017.93645	0.02243
2018.41863	0.02216
2018.90082	0.02125
2019.38300	0.02024
2019.86518	0.01984
2020.34737	0.02002
2020.82955	0.02026
2021.31173	0.02019
2021.79392	0.02021
2022.27610	0.02091
2022.75828	0.02176
2023.24047	0.02156
2023.72265	0.02060
2024.20483	0.02024
2024.68702	0.02063
2025.16920	0.02085
2025.65138	0.02055
2026.13356	0.02034
2026.61575	0.02092
2027.09793	0.02234
2027.58011	0.02332
2028.06230	0.02276
2028.54448	0.02173
2029.02666	0.02154
2029.50885	0.02145
2029.99103	0.02082
2030.47321	0.02029
2030.95540	0.02049
2031.43758	0.02194
2031.91976	0.02444
2032.40195	0.02603
2032.88413	0.02537
2033.36631	0.02381
2033.84850	0.02247
2034.33068	0.02134
2034.81286	0.02073
2035.29504	0.02078
2035.77723	0.02185
2036.25941	0.02498
2036.74159	0.02936
2037.22378	0.03103
2037.70596	0.02817
2038.18814	0.02423
2038.67033	0.02212
2039.15251	0.02157
2039.63469	0.02172
2040.11688	0.02273
2040.59906	0.02639
2041.08124	0.03365
2041.56343	0.03909
2042.04561	0.03583
2042.52779	0.02820
2043.00997	0.02381
2043.49216	0.02303
2043.97434	0.02328
2044.45652	0.02394
2044.93871	0.02670
2045.42089	0.03377
2045.90307	0.04244
2046.38526	0.04365
2046.86744	0.03551
2047.34962	0.02741
2047.83181	0.02442
2048.31399	0.02428
2048.79617	0.02540
2049.27836	0.02848
2049.76054	0.03467
2050.24272	0.04406
2050.72491	0.05054
2051.20709	0.04553
2051.68927	0.03390
2052.17145	0.02683
2052.65364	0.02582
2053.13582	0.02760
2053.61800	0.03042
2054.10019	0.03407
2054.58237	0.04234
2055.06455	0.05474
2055.54674	0.05700
2056.02892	0.04385
2056.51110	0.03088
2056.99329	0.02747
2057.47547	0.02918
2057.95765	0.03043
2058.43984	0.03112
2058.92202	0.03835
2059.40420	0.05588
2059.88638	0.06788
2060.36857	0.05739
2060.85075	0.03857
2061.33293	0.03039
2061.81512	0.02961
2062.29730	0.02816
2062.77948	0.02770
2063.26167	0.03552
2063.74385	0.05695
2064.22603	0.08003
2064.70822	0.07832
2065.19040	0.05544
2065.67258	0.03879
2066.15477	0.03238
2066.63695	0.02896
2067.11913	0.02902
2067.60132	0.03727
2068.08350	0.06012
2068.56568	0.08974
2069.04786	0.09510
2069.53005	0.06924
2070.01223	0.04305
2070.49441	0.03170
2070.97660	0.02884
2071.45878	0.02993
2071.94096	0.03845
2072.42315	0.06376
2072.90533	0.10134
2073.38751	0.11310
2073.86970	0.08126
2074.35188	0.04541
2074.83406	0.03064
2075.31625	0.02815
2075.79843	0.03003
2076.28061	0.04075
2076.76279	0.07138
2077.24498	0.11670
2077.72716	0.13107
2078.20934	0.09242
2078.69153	0.04886
2079.17371	0.03062
2079.65589	0.02756
2080.13808	0.03000
2080.62026	0.04154
2081.10244	0.07244
2081.58463	0.11911
2082.06681	0.13684
2082.54899	0.09825
2083.03118	0.05134
2083.51336	0.03099
2083.99554	0.02829
2084.47773	0.03203
2084.95991	0.04476
2085.44209	0.07807
2085.92427	0.12929
2086.40646	0.14811
2086.88864	0.10475
2087.37082	0.05413
2087.85301	0.03304
2088.33519	0.03032
2088.81737	0.03360
2089.29956	0.04834
2089.78174	0.09033
2090.26392	0.15106
2090.74611	0.16414
2091.22829	0.10861
2091.71047	0.05453
2092.19266	0.03367
2092.67484	0.03069
2093.15702	0.03519
2093.63920	0.05541
2094.12139	0.10530
2094.60357	0.16613
2095.08575	0.16669
2095.56794	0.10334
2096.05012	0.05123
2096.53230	0.03304
2097.01449	0.03145
2097.49667	0.03957
2097.97885	0.06926
2098.46104	0.13231
2098.94322	0.19166
2099.42540	0.16941
2099.90759	0.09556
2100.38977	0.04779
2100.87195	0.03375
2101.35414	0.03447
2101.83632	0.04835
2102.31850	0.09048
2102.80068	0.16282
2103.28287	0.20314
2103.76505	0.15205
2104.24723	0.07860
2104.72942	0.04237
2105.21160	0.03474
2105.69378	0.04034
2106.17597	0.06557
2106.65815	0.12592
2107.14033	0.20116
2107.62252	0.20457
2108.10470	0.12753
2108.58688	0.06290
2109.06907	0.03971
2109.55125	0.03925
2110.03343	0.05341
2110.51561	0.09412
2110.99780	0.16813
2111.47998	0.22165
2111.96216	0.17794
2112.44435	0.09609
2112.92653	0.05176
2113.40871	0.04256
2113.89090	0.04829
2114.37308	0.07147
2114.85526	0.12964
2115.33745	0.20612
2115.81963	0.21277
2116.30181	0.13657
2116.78400	0.07164
2117.26618	0.04781
2117.74836	0.04463
2118.23055	0.05586
2118.71273	0.09816
2119.19491	0.17594
2119.67709	0.22523
2120.15928	0.17564
2120.64146	0.09631
2121.12364	0.05358
2121.60583	0.04145
2122.08801	0.04671
2122.57019	0.07789
2123.05238	0.14740
2123.53456	0.21876
2124.01674	0.20100
2124.49893	0.11731
2124.98111	0.05868
2125.46329	0.03973
2125.94548	0.04206
2126.42766	0.06519
2126.90984	0.12287
2127.39202	0.19636
2127.87421	0.20184
2128.35639	0.12745
2128.83857	0.06341
2129.32076	0.04013
2129.80294	0.04035
2130.28512	0.05858
2130.76731	0.10676
2131.24949	0.17537
2131.73167	0.19419
2132.21386	0.13208
2132.69604	0.06705
2133.17822	0.04069
2133.66041	0.03939
2134.14259	0.05213
2134.62477	0.08665
2135.10696	0.14135
2135.58914	0.16629
2136.07132	0.12252
2136.55350	0.06577
2137.03569	0.04057
2137.51787	0.03689
2138.00005	0.04193
2138.48224	0.06202
2138.96442	0.09853
2139.44660	0.11823
2139.92879	0.09275
2140.41097	0.05490
2140.89315	0.03577
2141.37534	0.02981
2141.85752	0.02710
2142.33970	0.02616
2142.82189	0.02656
2143.30407	0.02783
2143.78625	0.02923
2144.26843	0.02932
2144.75062	0.02835
2145.23280	0.02931
2145.71498	0.03810
2146.19717	0.06392
2146.67935	0.10348
2147.16153	0.11945
2147.64372	0.08880
2148.12590	0.05036
2148.60808	0.03414
2149.09027	0.03545
2149.57245	0.05237
2150.05463	0.09569
2150.53682	0.15326
2151.01900	0.16341
2151.50118	0.10955
2151.98337	0.05815
2152.46555	0.03972
2152.94773	0.04403
2153.42991	0.07054
2153.91210	0.12932
2154.39428	0.19198
2154.87646	0.18144
2155.35865	0.11005
2155.84083	0.05837
2156.32301	0.04407
2156.80520	0.05376
2157.28738	0.09277
2157.76956	0.16699
2158.25175	0.22099
2158.73393	0.17851
2159.21611	0.09843
2159.69830	0.05473
2160.18048	0.04774
2160.66266	0.06762
2161.14484	0.12444
2161.62703	0.20605
2162.10921	0.22678
2162.59139	0.15289
2163.07358	0.07921
2163.55576	0.05053
2164.03794	0.05560
2164.52013	0.09299
2165.00231	0.16990
2165.48449	0.23768
2165.96668	0.20435
2166.44886	0.11581
2166.93104	0.06193
2167.41323	0.05127
2167.89541	0.07212
2168.37759	0.13192
2168.85978	0.21651
2169.34196	0.23606
2169.82414	0.15771
2170.30632	0.08164
2170.78851	0.05307
2171.27069	0.06082
2171.75287	0.10418
2172.23506	0.18504
2172.71724	0.24142
2173.19942	0.19182
2173.68161	0.10472
2174.16379	0.05875
2174.64597	0.05458
2175.12816	0.08415
2175.61034	0.15347
2176.09252	0.22761
2176.57471	0.21239
2177.05689	0.12663
2177.53907	0.06641
2178.02125	0.05180
2178.50344	0.07210
2178.98562	0.13128
2179.46780	0.21034
2179.94999	0.22048
2180.43217	0.14270
2180.91435	0.07368
2181.39654	0.05092
2181.87872	0.06436
2182.36090	0.11437
2182.84309	0.19013
2183.32527	0.21505
2183.80745	0.14917
2184.28964	0.07790
2184.77182	0.05013
2185.25400	0.05903
2185.73619	0.10240
2186.21837	0.17296
2186.70055	0.20390
2187.18273	0.14754
2187.66492	0.07800
2188.14710	0.04877
2188.62928	0.05575
2189.11147	0.09584
2189.59365	0.16182
2190.07583	0.19136
2190.55802	0.13921
2191.04020	0.07375
2191.52238	0.04651
2192.00457	0.05413
2192.48675	0.09341
2192.96893	0.15446
2193.45112	0.17631
2193.93330	0.12465
2194.41548	0.06596
2194.89766	0.04394
2195.37985	0.05424
2195.86203	0.09418
2196.34421	0.14863
2196.82640	0.15781
2197.30858	0.10546
2197.79076	0.05615
2198.27295	0.04166
2198.75513	0.05619
2199.23731	0.09730
2199.71950	0.14204
2200.20168	0.13562
2200.68386	0.08426
2201.16605	0.04665
2201.64823	0.04077
2202.13041	0.06046
2202.61260	0.10154
2203.09478	0.13165
2203.57696	0.10971
2204.05914	0.06374
2204.54133	0.03949
2205.02351	0.04228
2205.50569	0.06693
2205.98788	0.10362
2206.47006	0.11429
2206.95224	0.08216
2207.43443	0.04705
2207.91661	0.03596
2208.39879	0.04632
2208.88098	0.07355
2209.36316	0.09873
2209.84534	0.08984
2210.32753	0.05744
2210.80971	0.03678
2211.29189	0.03689
2211.77407	0.05339
2212.25626	0.07806
2212.73844	0.08552
2213.22062	0.06421
2213.70281	0.04041
2214.18499	0.03338
2214.66717	0.04192
2215.14936	0.06105
2215.63154	0.07495
2216.11372	0.06531
2216.59591	0.04387
2217.07809	0.03268
2217.56027	0.03539
2218.04246	0.04826
2218.52464	0.06225
2219.00682	0.06084
2219.48901	0.04494
2219.97119	0.03275
2220.45337	0.03194
2220.93555	0.03987
2221.41774	0.05092
2221.89992	0.05317
2222.38210	0.04294
2222.86429	0.03258
2223.34647	0.03056
2223.82865	0.03583
2224.31084	0.04422
2224.79302	0.04727
2225.27520	0.04069
2225.75739	0.03264
2226.23957	0.03030
2226.72175	0.03321
2227.20394	0.03872
2227.68612	0.04151
2228.16830	0.03790
2228.65048	0.03236
2229.13267	0.03031
2229.61485	0.03237
2230.09703	0.03669
2230.57922	0.03890
2231.06140	0.03600
2231.54358	0.03172
2232.02577	0.03064
2232.50795	0.03290
2232.99013	0.03594
2233.47232	0.03641
2233.95450	0.03398
2234.43668	0.03217
2234.91887	0.03270
2235.40105	0.03395
2235.88323	0.03483
2236.36541	0.03519
2236.84760	0.03504
2237.32978	0.03443
2237.81196	0.03354
2238.29415	0.03385
2238.77633	0.03613
2239.25851	0.03777
2239.74070	0.03643
2240.22288	0.03437
2240.70506	0.03529
2241.18725	0.03855
2241.66943	0.03972
2242.15161	0.03762
2242.63380	0.03674
2243.11598	0.03952
2243.59816	0.04189
2244.08035	0.04055
2244.56253	0.03911
2245.04471	0.04161
2245.52689	0.04490
2246.00908	0.04385
2246.49126	0.04134
2246.97344	0.04356
2247.45563	0.04834
2247.93781	0.04832
2248.41999	0.04474
2248.90218	0.04592
2249.38436	0.05200
2249.86654	0.05363
2250.34873	0.04920
2250.83091	0.04893
2251.31309	0.05580
2251.79528	0.05912
2252.27746	0.05428
2252.75964	0.05273
2253.24182	0.06020
2253.72401	0.06484
2254.20619	0.05950
2254.68837	0.05695
2255.17056	0.06515
2255.65274	0.07083
2256.13492	0.06476
2256.61711	0.06138
2257.09929	0.07018
2257.58147	0.07623
2258.06366	0.06927
2258.54584	0.06580
2259.02802	0.07557
2259.51021	0.08132
2259.99239	0.07343
2260.47457	0.07109
2260.95676	0.08243
2261.43894	0.08674
2261.92112	0.07729
2262.40330	0.07694
2262.88549	0.08973
2263.36767	0.09122
2263.84985	0.08045
2264.33204	0.08296
2264.81422	0.09570
2265.29640	0.09279
2265.77859	0.08228
2266.26077	0.08850
2266.74295	0.09911
2267.22514	0.09185
2267.70732	0.08458
2268.18950	0.09434
2268.67169	0.09983
2269.15387	0.08957
2269.63605	0.08861
2270.11823	0.10049
2270.60042	0.09893
2271.08260	0.08872
2271.56478	0.09435
2272.04697	0.10344
2272.52915	0.09543
2273.01133	0.08972
2273.49352	0.09895
2273.97570	0.10104
2274.45788	0.09264
2274.94007	0.09553
2275.42225	0.10266
2275.90443	0.09565
2276.38662	0.09006
2276.86880	0.09724
2277.35098	0.09845
2277.83317	0.09038
2278.31535	0.09025
2278.79753	0.09356
2279.27971	0.08893
2279.76190	0.08587
2280.24408	0.08717
2280.72626	0.08239
2281.20845	0.07622
2281.69063	0.07745
2282.17281	0.07840
2282.65500	0.07196
2283.13718	0.06610
2283.61936	0.06886
2284.10155	0.07814
2284.58373	0.08619
2285.06591	0.08987
2285.54810	0.09367
2286.03028	0.10021
2286.51246	0.11185
2286.99464	0.12583
2287.47683	0.12810
2287.95901	0.12435
2288.44119	0.13647
2288.92338	0.15744
2289.40556	0.16323
2289.88774	0.15825
2290.36993	0.15712
2290.85211	0.16718
2291.33429	0.18969
2291.81648	0.19866
2292.29866	0.18646
2292.78084	0.19283
2293.26303	0.22674
2293.74521	0.25113
2294.22739	0.24195
2294.70958	0.21988
2295.19176	0.22453
2295.67394	0.26413
2296.15612	0.28586
2296.63831	0.26527
2297.12049	0.25553
2297.60267	0.27741
2298.08486	0.30246
2298.56704	0.29265
2299.04922	0.26698
2299.53141	0.28040
2300.01359	0.33318
2300.49577	0.36491
2300.97796	0.34547
2301.46014	0.32329
2301.94232	0.33882
2302.42451	0.37419
2302.90669	0.37403
2303.38887	0.34582
2303.87105	0.33830
2304.35324	0.36607
2304.83542	0.40311
2305.31760	0.40852
2305.79979	0.40677
2306.28197	0.44411
2306.76415	0.50875
2307.24634	0.52167
2307.72852	0.49179
2308.21070	0.50975
2308.69289	0.59194
2309.17507	0.63304
2309.65725	0.57758
2310.13944	0.55741
2310.62162	0.62467
2311.10380	0.69303
2311.58599	0.64214
2312.06817	0.59682
2312.55035	0.63423
2313.03253	0.69744
2313.51472	0.67599
2313.99690	0.64248
2314.47908	0.67229
2314.96127	0.73933
2315.44345	0.76211
2315.92563	0.74024
2316.40782	0.74698
2316.89000	0.81027
2317.37218	0.88320
2317.85437	0.86540
2318.33655	0.83327
2318.81873	0.87943
2319.30092	0.97632
2319.78310	0.96089
2320.26528	0.91812
2320.74746	0.96569
2321.22965	1.05608
2321.71183	1.02901
2322.19401	1.00640
2322.67620	1.08109
2323.15838	1.17975
2323.64056	1.16660
2324.12275	1.18447
2324.60493	1.28870
2325.08711	1.35153
2325.56930	1.31143
2326.05148	1.33143
2326.53366	1.44158
2327.01585	1.53717
2327.49803	1.49978
2327.98021	1.47238
2328.46240	1.52913
2328.94458	1.57946
2329.42676	1.51134
2329.90894	1.47805
2330.39113	1.52878
2330.87331	1.54865
2331.35549	1.50801
2331.83768	1.54194
2332.31986	1.64227
2332.80204	1.64278
2333.28423	1.62834
2333.76641	1.70130
2334.24859	1.74881
2334.73078	1.67362
2335.21296	1.66628
2335.69514	1.78569
2336.17733	1.89790
2336.65951	1.82710
2337.14169	1.80110
2337.62387	1.83541
2338.10606	1.77991
2338.58824	1.73582
2339.07042	1.78611
2339.55261	1.84053
2340.03479	1.82426
2340.51697	1.88080
2340.99916	2.04245
2341.48134	2.07554
2341.96352	2.03313
2342.44571	2.07547
2342.92789	2.03760
2343.41007	1.89204
2343.89226	1.81020
2344.37444	1.72266
2344.85662	1.59475
2345.33881	1.52898
2345.82099	1.48242
2346.30317	1.39207
2346.78535	1.32613
2347.26754	1.26976
2347.74972	1.13967
2348.23190	1.00023
2348.71409	0.93502
2349.19627	0.95600
2349.67845	1.05710
2350.16064	1.16371
2350.64282	1.20715
2351.12500	1.28974
2351.60719	1.47524
2352.08937	1.63689
2352.57155	1.76849
2353.05374	1.96865
2353.53592	2.04362
2354.01810	2.04439
2354.50028	2.15099
2354.98247	2.28606
2355.46465	2.55388
2355.94683	6.00000
2356.42902	6.00000
2356.91120	6.00000
2357.39338	6.00000
2357.87557	6.00000
2358.35775	6.00000
2358.83993	6.00000
2359.32212	3.30992
2359.80430	2.80611
2360.28648	2.52356
2360.76867	2.35666
2361.25085	2.45256
2361.73303	2.62760
2362.21522	3.06993
2362.69740	6.00000
2363.17958	6.00000
2363.66176	6.00000
2364.14395	6.00000
2364.62613	6.00000
2365.10831	6.00000
2365.59050	6.00000
2366.07268	6.00000
2366.55486	2.94705
2367.03705	2.60471
2367.51923	2.41361
2368.00141	2.22120
2368.48360	2.06025
2368.96578	1.93905
2369.44796	1.82442
2369.93015	1.72632
2370.41233	1.62621
2370.89451	1.53497
2371.37669	1.44991
2371.85888	1.36292
2372.34106	1.28355
2372.82324	1.20651
2373.30543	1.13324
2373.78761	1.06254
2374.26979	0.99499
2374.75198	0.93103
2375.23416	0.86803
2375.71634	0.80809
2376.19853	0.75190
2376.68071	0.69929
2377.16289	0.64867
2377.64508	0.60057
2378.12726	0.55577
2378.60944	0.51353
2379.09163	0.47347
2379.57381	0.43559
2380.05599	0.40078
2380.53817	0.36831
2381.02036	0.33726
2381.50254	0.30725
2381.98472	0.27865
2382.46691	0.25198
2382.94909	0.22689
2383.43127	0.20300
2383.91346	0.17997
2384.39564	0.15817
2384.87782	0.13800
2385.36001	0.11985
2385.84219	0.10398
2386.32437	0.09026
2386.80656	0.07861
2387.28874	0.06876
2387.77092	0.06069
2388.25310	0.05420
2388.73529	0.04904
2389.21747	0.04505
2389.69965	0.04199
2390.18184	0.03975
2390.66402	0.03805
2391.14620	0.03686
2391.62839	0.03607
2392.11057	0.03555
2392.59275	0.03519
2393.07494	0.03489
2393.55712	0.03473
2394.03930	0.03463
2394.52149	0.03459
2395.00367	0.03451
2395.48585	0.03446
2395.96804	0.03447
2396.45022	0.03445
2396.93240	0.03445
2397.41458	0.03444
2397.89677	0.03448
2398.37895	0.03451
2398.86113	0.03450
2399.34332	0.03450
2399.82550	0.03452
2400.30768	0.03457
2400.78987	0.03457
2401.27205	0.03455
2401.75423	0.03452
2402.23642	0.03452
2402.71860	0.03454
2403.20078	0.03453
2403.68297	0.03453
2404.16515	0.03457
2404.64733	0.03465
2405.12951	0.03468
2405.61170	0.03468
2406.09388	0.03466
2406.57606	0.03463
2407.05825	0.03465
2407.54043	0.03470
2408.02261	0.03476
2408.50480	0.03479
2408.98698	0.03479
2409.46916	0.03482
2409.95135	0.03490
2410.43353	0.03495
2410.91571	0.03492
2411.39790	0.03493
2411.88008	0.03496
2412.36226	0.03498
2412.84445	0.03496
2413.32663	0.03498
2413.80881	0.03506
2414.29099	0.03509
2414.77318	0.03507
2415.25536	0.03506
2415.73754	0.03510
2416.21973	0.03514
2416.70191	0.03520
2417.18409	0.03530
2417.66628	0.03537
2418.14846	0.03533
2418.63064	0.03521
2419.11283	0.03515
2419.59501	0.03522
2420.07719	0.03531
2420.55938	0.03536
2421.04156	0.03540
2421.52374	0.03543
2422.00592	0.03543
2422.48811	0.03544
2422.97029	0.03549
2423.45247	0.03555
2423.93466	0.03559
2424.41684	0.03561
2424.89902	0.03561
2425.38121	0.03561
2425.86339	0.03565
2426.34557	0.03571
2426.82776	0.03573
2427.30994	0.03574
2427.79212	0.03578
2428.27431	0.03583
2428.75649	0.03587
2429.23867	0.03589
2429.72086	0.03590
2430.20304	0.03590
2430.68522	0.03592
2431.16740	0.03595
2431.64959	0.03597
2432.13177	0.03597
2432.61395	0.03598
2433.09614	0.03595
2433.57832	0.03594
2434.06050	0.03603
2434.54269	0.03614
2435.02487	0.03619
2435.50705	0.03621
2435.98924	0.03625
2436.47142	0.03627
2436.95360	0.03631
2437.43579	0.03637
2437.91797	0.03640
2438.40015	0.03638
2438.88233	0.03641
2439.36452	0.03650
2439.84670	0.03656
2440.32888	0.03657
2440.81107	0.03659
2441.29325	0.03660
2441.77543	0.03662
2442.25762	0.03666
2442.73980	0.03670
2443.22198	0.03671
2443.70417	0.03671
2444.18635	0.03671
2444.66853	0.03672
2445.15072	0.03675
2445.63290	0.03682
2446.11508	0.03690
2446.59727	0.03694
2447.07945	0.03696
2447.56163	0.03700
2448.04381	0.03704
2448.52600	0.03705
2449.00818	0.03705
2449.49036	0.03710
2449.97255	0.03717
2450.45473	0.03721
2450.93691	0.03721
2451.41910	0.03720
2451.90128	0.03723
2452.38346	0.03730
2452.86565	0.03737
2453.34783	0.03741
2453.83001	0.03740
2454.31220	0.03738
2454.79438	0.03738
2455.27656	0.03740
2455.75874	0.03741
2456.24093	0.03742
2456.72311	0.03745
2457.20529	0.03751
2457.68748	0.03757
2458.16966	0.03761
2458.65184	0.03767
2459.13403	0.03778
2459.61621	0.03788
2460.09839	0.03793
2460.58058	0.03790
2461.06276	0.03788
2461.54494	0.03788
2462.02713	0.03792
2462.50931	0.03797
2462.99149	0.03801
2463.47368	0.03803
2463.95586	0.03806
2464.43804	0.03811
2464.92022	0.03815
2465.40241	0.03821
2465.88459	0.03829
2466.36677	0.03833
2466.84896	0.03834
2467.33114	0.03834
2467.81332	0.03834
2468.29551	0.03833
2468.77769	0.03834
2469.25987	0.03838
2469.74206	0.03843
2470.22424	0.03847
2470.70642	0.03853
2471.18861	0.03859
2471.67079	0.03864
2472.15297	0.03871
2472.63515	0.03877
2473.11734	0.03877
2473.59952	0.03874
2474.08170	0.03873
2474.56389	0.03874
2475.04607	0.03878
2475.52825	0.03883
2476.01044	0.03889
2476.49262	0.03896
2476.97480	0.03902
2477.45699	0.03907
2477.93917	0.03912
2478.42135	0.03909
2478.90354	0.03902
2479.38572	0.03903
2479.86790	0.03911
2480.35009	0.03916
2480.83227	0.03918
2481.31445	0.03921
2481.79663	0.03923
2482.27882	0.03926
2482.76100	0.03928
2483.24318	0.03926
2483.72537	0.03929
2484.20755	0.03938
2484.68973	0.03947
2485.17192	0.03949
2485.65410	0.03951
2486.13628	0.03954
2486.61847	0.03956
2487.10065	0.03956
2487.58283	0.03957
2488.06502	0.03961
2488.54720	0.03966
2489.02938	0.03968
2489.51156	0.03965
2489.99375	0.03964
2490.47593	0.03969
2490.95811	0.03972
2491.44030	0.03969
2491.92248	0.03970
2492.40466	0.03975
2492.88685	0.03983
2493.36903	0.03995
2493.85121	0.04008
2494.33340	0.04015
2494.81558	0.04014
2495.29776	0.04007
2495.77995	0.04003
2496.26213	0.04005
2496.74431	0.04008
2497.22650	0.04013
2497.70868	0.04020
2498.19086	0.04027
2498.67304	0.04033
2499.15523	0.04035
2499.63741	0.04033
2500.11959	0.04031
2500.60178	0.04035
2501.08396	0.04038
2501.56614	0.04038
2502.04833	0.04042
2502.53051	0.04053
2503.01269	0.04064
2503.49488	0.04068
2503.97706	0.04068
2504.45924	0.04066
2504.94143	0.04067
2505.42361	0.04072
2505.90579	0.04077
2506.38797	0.04074
2506.87016	0.04069
2507.35234	0.04072
2507.83452	0.04082
2508.31671	0.04088
2508.79889	0.04086
2509.28107	0.04084
2509.76326	0.04088
2510.24544	0.04099
2510.72762	0.04114
2511.20981	0.04124
2511.69199	0.04128
2512.17417	0.04129
2512.65636	0.04130
2513.13854	0.04128
2513.62072	0.04129
2514.10291	0.04135
2514.58509	0.04141
2515.06727	0.04145
2515.54945	0.04148
2516.03164	0.04148
2516.51382	0.04143
2516.99600	0.04138
2517.47819	0.04140
2517.96037	0.04150
2518.44255	0.04160
2518.92474	0.04165
2519.40692	0.04165
