1999.61349	0.01171
2000.09568	0.01145
2000.57786	0.01135
2001.06004	0.01133
2001.54222	0.01132
2002.02441	0.01135
2002.50659	0.01142
2002.98877	0.01154
2003.47096	0.01165
2003.95314	0.01163
2004.43532	0.01152
2004.91751	0.01141
2005.39969	0.01134
2005.88187	0.01133
2006.36406	0.01140
2006.84624	0.01161
2007.32842	0.01189
2007.81061	0.01207
2008.29279	0.01205
2008.77497	0.01190
2009.25715	0.01172
2009.73934	0.01155
2010.22152	0.01144
2010.70370	0.01138
2011.18589	0.01139
2011.66807	0.01150
2012.15025	0.01168
2012.63244	0.01183
2013.11462	0.01189
2013.59680	0.01180
2014.07899	0.01158
2014.56117	0.01147
2015.04335	0.01159
2015.52554	0.01207
2016.00772	0.01323
2016.48990	0.01470
2016.97209	0.01506
2017.45427	0.01421
2017.93645	0.01368
2018.41863	0.01352
2018.90082	0.01299
2019.38300	0.01232
2019.86518	0.01195
2020.34737	0.01190
2020.82955	0.01195
2021.31173	0.01191
2021.79392	0.01198
2022.27610	0.01238
2022.75828	0.01284
2023.24047	0.01273
2023.72265	0.01221
2024.20483	0.01195
2024.68702	0.01212
2025.16920	0.01225
2025.65138	0.01215
2026.13356	0.01208
2026.61575	0.01236
2027.09793	0.01295
2027.58011	0.01331
2028.06230	0.01300
2028.54448	0.01252
2029.02666	0.01244
2029.50885	0.01241
2029.99103	0.01215
2030.47321	0.01193
2030.95540	0.01202
2031.43758	0.01265
2031.91976	0.01375
2032.40195	0.01445
2032.88413	0.01416
2033.36631	0.01347
2033.84850	0.01291
2034.33068	0.01243
2034.81286	0.01210
2035.29504	0.01205
2035.77723	0.01252
2036.25941	0.01394
2036.74159	0.01589
2037.22378	0.01665
2037.70596	0.01540
2038.18814	0.01364
2038.67033	0.01270
2039.15251	0.01249
2039.63469	0.01260
2040.11688	0.01318
2040.59906	0.01511
2041.08124	0.01862
2041.56343	0.02093
2042.04561	0.01910
2042.52779	0.01546
2043.00997	0.01351
2043.49216	0.01328
2043.97434	0.01344
2044.45652	0.01365
2044.93871	0.01477
2045.42089	0.01789
2045.90307	0.02177
2046.38526	0.02238
2046.86744	0.01880
2047.34962	0.01516
2047.83181	0.01378
2048.31399	0.01370
2048.79617	0.01414
2049.27836	0.01543
2049.76054	0.01822
2050.24272	0.02262
2050.72491	0.02568
2051.20709	0.02343
2051.68927	0.01808
2052.17145	0.01481
2052.65364	0.01430
2053.13582	0.01503
2053.61800	0.01624
2054.10019	0.01794
2054.58237	0.02197
2055.06455	0.02795
2055.54674	0.02908
2056.02892	0.02289
2056.51110	0.01668
2056.99329	0.01498
2057.47547	0.01570
2057.95765	0.01624
2058.43984	0.01665
2058.92202	0.02033
2059.40420	0.02899
2059.88638	0.03486
2060.36857	0.02984
2060.85075	0.02056
2061.33293	0.01636
2061.81512	0.01589
2062.29730	0.01527
2062.77948	0.01522
2063.26167	0.01930
2063.74385	0.03035
2064.22603	0.04219
2064.70822	0.04141
2065.19040	0.02952
2065.67258	0.02061
2066.15477	0.01726
2066.63695	0.01559
2067.11913	0.01564
2067.60132	0.01998
2068.08350	0.03213
2068.56568	0.04755
2069.04786	0.04996
2069.53005	0.03619
2070.01223	0.02241
2070.49441	0.01675
2070.97660	0.01548
2071.45878	0.01609
2071.94096	0.02071
2072.42315	0.03475
2072.90533	0.05524
2073.38751	0.06137
2073.86970	0.04409
2074.35188	0.02437
2074.83406	0.01637
2075.31625	0.01514
2075.79843	0.01620
2076.28061	0.02216
2076.76279	0.03949
2077.24498	0.06498
2077.72716	0.07320
2078.20934	0.05190
2078.69153	0.02693
2079.17371	0.01651
2079.65589	0.01485
2080.13808	0.01602
2080.62026	0.02218
2081.10244	0.03985
2081.58463	0.06700
2082.06681	0.07761
2082.54899	0.05586
2083.03118	0.02836
2083.51336	0.01654
2083.99554	0.01505
2084.47773	0.01689
2084.95991	0.02404
2085.44209	0.04424
2085.92427	0.07535
2086.40646	0.08668
2086.88864	0.06099
2087.37082	0.03023
2087.85301	0.01755
2088.33519	0.01596
2088.81737	0.01775
2089.29956	0.02670
2089.78174	0.05285
2090.26392	0.08995
2090.74611	0.09765
2091.22829	0.06380
2091.71047	0.03009
2092.19266	0.01752
2092.67484	0.01600
2093.15702	0.01855
2093.63920	0.03068
2094.12139	0.06165
2094.60357	0.09889
2095.08575	0.09922
2095.56794	0.06034
2096.05012	0.02789
2096.53230	0.01718
2097.01449	0.01641
2097.49667	0.02102
2097.97885	0.03926
2098.46104	0.07898
2098.94322	0.11554
2099.42540	0.10185
2099.90759	0.05546
2100.38977	0.02539
2100.87195	0.01729
2101.35414	0.01776
2101.83632	0.02591
2102.31850	0.05229
2102.80068	0.09790
2103.28287	0.12270
2103.76505	0.09110
2104.24723	0.04437
2104.72942	0.02179
2105.21160	0.01755
2105.69378	0.02063
2106.17597	0.03560
2106.65815	0.07337
2107.14033	0.12043
2107.62252	0.12327
2108.10470	0.07545
2108.58688	0.03411
2109.06907	0.02001
2109.55125	0.01975
2110.03343	0.02770
2110.51561	0.05310
2110.99780	0.10083
2111.47998	0.13498
2111.96216	0.10805
2112.44435	0.05524
2112.92653	0.02665
2113.40871	0.02107
2113.89090	0.02426
2114.37308	0.03861
2114.85526	0.07621
2115.33745	0.12469
2115.81963	0.12875
2116.30181	0.08041
2116.78400	0.03829
2117.26618	0.02367
2117.74836	0.02223
2118.23055	0.02917
2118.71273	0.05586
2119.19491	0.10485
2119.67709	0.13483
2120.15928	0.10390
2120.64146	0.05342
2121.12364	0.02709
2121.60583	0.02069
2122.08801	0.02406
2122.57019	0.04330
2123.05238	0.08695
2123.53456	0.13037
2124.01674	0.11921
2124.49893	0.06716
2124.98111	0.03068
2125.46329	0.01986
2125.94548	0.02138
2126.42766	0.03520
2126.90984	0.07116
2127.39202	0.11655
2127.87421	0.12033
2128.35639	0.07471
2128.83857	0.03429
2129.32076	0.02022
2129.80294	0.02042
2130.28512	0.03083
2130.76731	0.05964
2131.24949	0.10079
2131.73167	0.11260
2132.21386	0.07630
2132.69604	0.03649
2133.17822	0.02061
2133.66041	0.01982
2134.14259	0.02676
2134.62477	0.04671
2135.10696	0.07846
2135.58914	0.09297
2136.07132	0.06863
2136.55350	0.03554
2137.03569	0.02076
2137.51787	0.01874
2138.00005	0.02142
2138.48224	0.03202
2138.96442	0.05091
2139.44660	0.06086
2139.92879	0.04794
2140.41097	0.02822
2140.89315	0.01830
2141.37534	0.01553
2141.85752	0.01438
2142.33970	0.01398
2142.82189	0.01415
2143.30407	0.01471
2143.78625	0.01529
2144.26843	0.01528
2144.75062	0.01485
2145.23280	0.01538
2145.71498	0.01986
2146.19717	0.03322
2146.67935	0.05343
2147.16153	0.06137
2147.64372	0.04587
2148.12590	0.02593
2148.60808	0.01745
2149.09027	0.01817
2149.57245	0.02761
2150.05463	0.05249
2150.53682	0.08506
2151.01900	0.09077
2151.50118	0.06041
2151.98337	0.03050
2152.46555	0.01987
2152.94773	0.02235
2153.42991	0.03822
2153.91210	0.07441
2154.39428	0.11219
2154.87646	0.10589
2155.35865	0.06231
2155.84083	0.03025
2156.32301	0.02185
2156.80520	0.02791
2157.28738	0.05248
2157.76956	0.09930
2158.25175	0.13230
2158.73393	0.10613
2159.21611	0.05534
2159.69830	0.02775
2160.18048	0.02379
2160.66266	0.03610
2161.14484	0.07211
2161.62703	0.12321
2162.10921	0.13577
2162.59139	0.08980
2163.07358	0.04275
2163.55576	0.02503
2164.03794	0.02841
2164.52013	0.05225
2165.00231	0.10199
2165.48449	0.14465
2165.96668	0.12380
2166.44886	0.06664
2166.93104	0.03174
2167.41323	0.02530
2167.89541	0.03825
2168.37759	0.07644
2168.85978	0.13013
2169.34196	0.14260
2169.82414	0.09340
2170.30632	0.04401
2170.78851	0.02602
2171.27069	0.03117
2171.75287	0.05920
2172.23506	0.11169
2172.71724	0.14733
2173.19942	0.11607
2173.68161	0.05929
2174.16379	0.02951
2174.64597	0.02713
2175.12816	0.04587
2175.61034	0.09041
2176.09252	0.13714
2176.57471	0.12792
2177.05689	0.07329
2177.53907	0.03433
2178.02125	0.02546
2178.50344	0.03849
2178.98562	0.07671
2179.46780	0.12719
2179.94999	0.13384
2180.43217	0.08445
2180.91435	0.03935
2181.39654	0.02496
2181.87872	0.03378
2182.36090	0.06610
2182.84309	0.11450
2183.32527	0.13012
2183.80745	0.08854
2184.28964	0.04223
2184.77182	0.02459
2185.25400	0.03040
2185.73619	0.05795
2186.21837	0.10249
2186.70055	0.12175
2187.18273	0.08690
2187.66492	0.04247
2188.14710	0.02404
2188.62928	0.02860
2189.11147	0.05383
2189.59365	0.09508
2190.07583	0.11334
2190.55802	0.08149
2191.04020	0.04009
2191.52238	0.02303
2192.00457	0.02797
2192.48675	0.05252
2192.96893	0.09026
2193.45112	0.10367
2193.93330	0.07232
2194.41548	0.03552
2194.89766	0.02187
2195.37985	0.02833
2195.86203	0.05297
2196.34421	0.08609
2196.82640	0.09178
2197.30858	0.06022
2197.79076	0.02956
2198.27295	0.02063
2198.75513	0.02948
2199.23731	0.05433
2199.71950	0.08087
2200.20168	0.07725
2200.68386	0.04671
2201.16605	0.02388
2201.64823	0.02038
2202.13041	0.03197
2202.61260	0.05591
2203.09478	0.07316
2203.57696	0.06079
2204.05914	0.03403
2204.54133	0.01972
2205.02351	0.02130
2205.50569	0.03522
2205.98788	0.05563
2206.47006	0.06151
2206.95224	0.04385
2207.43443	0.02404
2207.91661	0.01777
2208.39879	0.02347
2208.88098	0.03819
2209.36316	0.05157
2209.84534	0.04687
2210.32753	0.02945
2210.80971	0.01818
2211.29189	0.01824
2211.77407	0.02693
2212.25626	0.03968
2212.73844	0.04346
2213.22062	0.03252
2213.70281	0.02013
2214.18499	0.01646
2214.66717	0.02084
2215.14936	0.03046
2215.63154	0.03733
2216.11372	0.03252
2216.59591	0.02172
2217.07809	0.01605
2217.56027	0.01735
2218.04246	0.02357
2218.52464	0.03028
2219.00682	0.02970
2219.48901	0.02216
2219.97119	0.01628
2220.45337	0.01585
2220.93555	0.01953
2221.41774	0.02467
2221.89992	0.02569
2222.38210	0.02090
2222.86429	0.01604
2223.34647	0.01508
2223.82865	0.01753
2224.31084	0.02138
2224.79302	0.02274
2225.27520	0.01970
2225.75739	0.01599
2226.23957	0.01496
2226.72175	0.01631
2227.20394	0.01879
2227.68612	0.02001
2228.16830	0.01840
2228.65048	0.01593
2229.13267	0.01499
2229.61485	0.01591
2230.09703	0.01788
2230.57922	0.01892
2231.06140	0.01764
2231.54358	0.01570
2232.02577	0.01521
2232.50795	0.01626
2232.99013	0.01765
2233.47232	0.01784
2233.95450	0.01677
2234.43668	0.01604
2234.91887	0.01636
2235.40105	0.01687
2235.88323	0.01714
2236.36541	0.01735
2236.84760	0.01753
2237.32978	0.01739
2237.81196	0.01688
2238.29415	0.01693
2238.77633	0.01807
2239.25851	0.01896
2239.74070	0.01833
2240.22288	0.01730
2240.70506	0.01785
2241.18725	0.01960
2241.66943	0.02018
2242.15161	0.01904
2242.63380	0.01869
2243.11598	0.02038
2243.59816	0.02168
2244.08035	0.02079
2244.56253	0.01995
2245.04471	0.02153
2245.52689	0.02352
2246.00908	0.02289
2246.49126	0.02142
2246.97344	0.02279
2247.45563	0.02564
2247.93781	0.02559
2248.41999	0.02341
2248.90218	0.02412
2249.38436	0.02774
2249.86654	0.02865
2250.34873	0.02601
2250.83091	0.02597
2251.31309	0.03020
2251.79528	0.03212
2252.27746	0.02913
2252.75964	0.02823
2253.24182	0.03281
2253.72401	0.03559
2254.20619	0.03236
2254.68837	0.03087
2255.17056	0.03589
2255.65274	0.03929
2256.13492	0.03556
2256.61711	0.03363
2257.09929	0.03921
2257.58147	0.04290
2258.06366	0.03855
2258.54584	0.03653
2259.02802	0.04278
2259.51021	0.04632
2259.99239	0.04131
2260.47457	0.03995
2260.95676	0.04722
2261.43894	0.04989
2261.92112	0.04387
2262.40330	0.04368
2262.88549	0.05171
2263.36767	0.05251
2263.84985	0.04568
2264.33204	0.04736
2264.81422	0.05543
2265.29640	0.05353
2265.77859	0.04685
2266.26077	0.05081
2266.74295	0.05747
2267.22514	0.05287
2267.70732	0.04840
2268.18950	0.05480
2268.67169	0.05824
2269.15387	0.05162
2269.63605	0.05108
2270.11823	0.05872
2270.60042	0.05764
2271.08260	0.05095
2271.56478	0.05437
2272.04697	0.06002
2272.52915	0.05495
2273.01133	0.05135
2273.49352	0.05716
2273.97570	0.05834
2274.45788	0.05288
2274.94007	0.05456
2275.42225	0.05893
2275.90443	0.05444
2276.38662	0.05083
2276.86880	0.05516
2277.35098	0.05572
2277.83317	0.05059
2278.31535	0.05047
2278.79753	0.05248
2279.27971	0.04953
2279.76190	0.04750
2280.24408	0.04819
2280.72626	0.04529
2281.20845	0.04154
2281.69063	0.04218
2282.17281	0.04267
2282.65500	0.03886
2283.13718	0.03544
2283.61936	0.03715
2284.10155	0.04267
2284.58373	0.04738
2285.06591	0.04951
2285.54810	0.05184
2286.03028	0.05593
2286.51246	0.06312
2286.99464	0.07151
2287.47683	0.07278
2287.95901	0.07069
2288.44119	0.07842
2288.92338	0.09119
2289.40556	0.09470
2289.88774	0.09198
2290.36993	0.09174
2290.85211	0.09856
2291.33429	0.11290
2291.81648	0.11808
2292.29866	0.11009
2292.78084	0.11400
2293.26303	0.13472
2293.74521	0.14929
2294.22739	0.14418
2294.70958	0.13133
2295.19176	0.13517
2295.67394	0.16067
2296.15612	0.17367
2296.63831	0.15976
2297.12049	0.15331
2297.60267	0.16927
2298.08486	0.18888
2298.56704	0.18404
2299.04922	0.16530
2299.53141	0.17208
2300.01359	0.20587
2300.49577	0.22565
2300.97796	0.21120
2301.46014	0.19534
2301.94232	0.20725
2302.42451	0.23335
2302.90669	0.23350
2303.38887	0.21330
2303.87105	0.20956
2304.35324	0.23222
2304.83542	0.25664
2305.31760	0.25404
2305.79979	0.24978
2306.28197	0.27757
2306.76415	0.32240
2307.24634	0.32607
2307.72852	0.30171
2308.21070	0.31415
2308.69289	0.37061
2309.17507	0.39665
2309.65725	0.35913
2310.13944	0.34614
2310.62162	0.39421
2311.10380	0.44168
2311.58599	0.40770
2312.06817	0.37407
2312.55035	0.39897
2313.03253	0.44314
2313.51472	0.42804
2313.99690	0.40012
2314.47908	0.41599
2314.96127	0.45814
2315.44345	0.47039
2315.92563	0.45373
2316.40782	0.45883
2316.89000	0.50291
2317.37218	0.54693
2317.85437	0.53158
2318.33655	0.51347
2318.81873	0.55196
2319.30092	0.61777
2319.78310	0.60302
2320.26528	0.57673
2320.74746	0.61910
2321.22965	0.68340
2321.71183	0.65452
2322.19401	0.63541
2322.67620	0.68938
2323.15838	0.74564
2323.64056	0.72208
2324.12275	0.72998
2324.60493	0.79484
2325.08711	0.82288
2325.56930	0.78952
2326.05148	0.79977
2326.53366	0.86476
2327.01585	0.91201
2327.49803	0.88610
2327.98021	0.87333
2328.46240	0.91503
2328.94458	0.94975
2329.42676	0.90976
2329.90894	0.89175
2330.39113	0.92986
2330.87331	0.94090
2331.35549	0.91181
2331.83768	0.93366
2332.31986	0.98790
2332.80204	0.97254
2333.28423	0.95617
2333.76641	0.99353
2334.24859	1.01162
2334.73078	0.96522
2335.21296	0.95978
2335.69514	1.02442
2336.17733	1.07924
2336.65951	1.04909
2337.14169	1.03747
2337.62387	1.05148
2338.10606	1.02218
2338.58824	0.99947
2339.07042	1.02814
2339.55261	1.05828
2340.03479	1.05064
2340.51697	1.07713
2340.99916	1.13562
2341.48134	1.13481
2341.96352	1.11799
2342.44571	1.13805
2342.92789	1.13184
2343.41007	1.07709
2343.89226	1.04555
2344.37444	1.01926
2344.85662	0.96233
2345.33881	0.92693
2345.82099	0.90186
2346.30317	0.84232
2346.78535	0.79574
2347.26754	0.76718
2347.74972	0.69880
2348.23190	0.61311
2348.71409	0.57213
2349.19627	0.59281
2349.67845	0.66838
2350.16064	0.73745
2350.64282	0.76090
2351.12500	0.80974
2351.60719	0.90125
2352.08937	0.96249
2352.57155	1.02133
2353.05374	1.10306
2353.53592	1.12497
2354.01810	1.12332
2354.50028	1.16180
2354.98247	1.20854
2355.46465	1.26847
2355.94683	1.37941
2356.42902	1.46523
2356.91120	1.50071
2357.39338	1.52555
2357.87557	1.50407
2358.35775	1.49619
2358.83993	1.53602
2359.32212	1.57894
2359.80430	1.62434
2360.28648	1.64577
2360.76867	1.60836
2361.25085	1.56823
2361.73303	1.53852
2362.21522	1.53294
2362.69740	1.55098
2363.17958	1.54797
2363.66176	1.51064
2364.14395	1.46664
2364.62613	1.42783
2365.10831	1.40377
2365.59050	1.37082
2366.07268	1.32373
2366.55486	1.28103
2367.03705	1.23725
2367.51923	1.20087
2368.00141	1.15932
2368.48360	1.11312
2368.96578	1.07199
2369.44796	1.02764
2369.93015	0.98592
2370.41233	0.94092
2370.89451	0.89578
2371.37669	0.85299
2371.85888	0.80775
2372.34106	0.76492
2372.82324	0.72301
2373.30543	0.68294
2373.78761	0.64368
2374.26979	0.60476
2374.75198	0.56798
2375.23416	0.53188
2375.71634	0.49716
2376.19853	0.46423
2376.68071	0.43319
2377.16289	0.40322
2377.64508	0.37440
2378.12726	0.34755
2378.60944	0.32233
2379.09163	0.29820
2379.57381	0.27480
2380.05599	0.25290
2380.53817	0.23250
2381.02036	0.21280
2381.50254	0.19325
2381.98472	0.17404
2382.46691	0.15581
2382.94909	0.13866
2383.43127	0.12246
2383.91346	0.10700
2384.39564	0.09251
2384.87782	0.07924
2385.36001	0.06744
2385.84219	0.05726
2386.32437	0.04858
2386.80656	0.04134
2387.28874	0.03531
2387.77092	0.03043
2388.25310	0.02653
2388.73529	0.02348
2389.21747	0.02118
2389.69965	0.01941
2390.18184	0.01815
2390.66402	0.01723
2391.14620	0.01662
2391.62839	0.01616
2392.11057	0.01581
2392.59275	0.01552
2393.07494	0.01527
2393.55712	0.01514
2394.03930	0.01503
2394.52149	0.01497
2395.00367	0.01496
2395.48585	0.01500
2395.96804	0.01504
2396.45022	0.01504
2396.93240	0.01505
2397.41458	0.01502
2397.89677	0.01505
2398.37895	0.01508
2398.86113	0.01509
2399.34332	0.01508
2399.82550	0.01505
2400.30768	0.01503
2400.78987	0.01500
2401.27205	0.01502
2401.75423	0.01500
2402.23642	0.01496
2402.71860	0.01496
2403.20078	0.01500
2403.68297	0.01504
2404.16515	0.01505
2404.64733	0.01508
2405.12951	0.01507
2405.61170	0.01505
2406.09388	0.01505
2406.57606	0.01508
2407.05825	0.01509
2407.54043	0.01505
2408.02261	0.01503
2408.50480	0.01504
2408.98698	0.01507
2409.46916	0.01511
2409.95135	0.01513
2410.43353	0.01513
2410.91571	0.01508
2411.39790	0.01505
2411.88008	0.01502
2412.36226	0.01499
2412.84445	0.01496
2413.32663	0.01495
2413.80881	0.01499
2414.29099	0.01500
2414.77318	0.01500
2415.25536	0.01501
2415.73754	0.01506
2416.21973	0.01510
2416.70191	0.01514
2417.18409	0.01514
2417.66628	0.01511
2418.14846	0.01507
2418.63064	0.01504
2419.11283	0.01503
2419.59501	0.01506
2420.07719	0.01512
2420.55938	0.01515
2421.04156	0.01510
2421.52374	0.01504
2422.00592	0.01503
2422.48811	0.01508
2422.97029	0.01514
2423.45247	0.01514
2423.93466	0.01512
2424.41684	0.01512
2424.89902	0.01513
2425.38121	0.01512
2425.86339	0.01514
2426.34557	0.01518
2426.82776	0.01521
2427.30994	0.01522
2427.79212	0.01521
2428.27431	0.01521
2428.75649	0.01519
2429.23867	0.01515
2429.72086	0.01515
2430.20304	0.01520
2430.68522	0.01524
2431.16740	0.01523
2431.64959	0.01522
2432.13177	0.01523
2432.61395	0.01526
2433.09614	0.01529
2433.57832	0.01531
2434.06050	0.01536
2434.54269	0.01540
2435.02487	0.01542
2435.50705	0.01543
2435.98924	0.01540
2436.47142	0.01537
2436.95360	0.01540
2437.43579	0.01545
2437.91797	0.01548
2438.40015	0.01551
2438.88233	0.01553
2439.36452	0.01553
2439.84670	0.01555
2440.32888	0.01561
2440.81107	0.01567
2441.29325	0.01570
2441.77543	0.01571
2442.25762	0.01569
2442.73980	0.01565
2443.22198	0.01563
2443.70417	0.01566
2444.18635	0.01567
2444.66853	0.01563
2445.15072	0.01559
2445.63290	0.01560
2446.11508	0.01565
2446.59727	0.01572
2447.07945	0.01573
2447.56163	0.01568
2448.04381	0.01561
2448.52600	0.01560
2449.00818	0.01564
2449.49036	0.01569
2449.97255	0.01570
2450.45473	0.01566
2450.93691	0.01563
2451.41910	0.01563
2451.90128	0.01561
2452.38346	0.01560
2452.86565	0.01559
2453.34783	0.01557
2453.83001	0.01555
2454.31220	0.01556
2454.79438	0.01559
2455.27656	0.01560
2455.75874	0.01559
2456.24093	0.01558
2456.72311	0.01557
2457.20529	0.01554
2457.68748	0.01550
2458.16966	0.01550
2458.65184	0.01553
2459.13403	0.01557
2459.61621	0.01559
2460.09839	0.01558
2460.58058	0.01558
2461.06276	0.01562
2461.54494	0.01564
2462.02713	0.01566
2462.50931	0.01571
2462.99149	0.01573
2463.47368	0.01573
2463.95586	0.01572
2464.43804	0.01572
2464.92022	0.01573
2465.40241	0.01576
2465.88459	0.01578
2466.36677	0.01576
2466.84896	0.01573
2467.33114	0.01573
2467.81332	0.01574
2468.29551	0.01573
2468.77769	0.01572
2469.25987	0.01576
2469.74206	0.01579
2470.22424	0.01576
2470.70642	0.01572
2471.18861	0.01572
2471.67079	0.01578
2472.15297	0.01585
2472.63515	0.01589
2473.11734	0.01592
2473.59952	0.01595
2474.08170	0.01595
2474.56389	0.01594
2475.04607	0.01592
2475.52825	0.01590
2476.01044	0.01592
2476.49262	0.01596
2476.97480	0.01596
2477.45699	0.01592
2477.93917	0.01588
2478.42135	0.01588
2478.90354	0.01593
2479.38572	0.01597
2479.86790	0.01595
2480.35009	0.01590
2480.83227	0.01587
2481.31445	0.01587
2481.79663	0.01587
2482.27882	0.01588
2482.76100	0.01590
2483.24318	0.01591
2483.72537	0.01591
2484.20755	0.01593
2484.68973	0.01594
2485.17192	0.01595
2485.65410	0.01598
2486.13628	0.01601
2486.61847	0.01602
2487.10065	0.01604
2487.58283	0.01607
2488.06502	0.01610
2488.54720	0.01610
2489.02938	0.01606
2489.51156	0.01603
2489.99375	0.01603
2490.47593	0.01606
2490.95811	0.01612
2491.44030	0.01615
2491.92248	0.01610
2492.40466	0.01603
2492.88685	0.01602
2493.36903	0.01606
2493.85121	0.01613
2494.33340	0.01617
2494.81558	0.01619
2495.29776	0.01615
2495.77995	0.01613
2496.26213	0.01613
2496.74431	0.01613
2497.22650	0.01612
2497.70868	0.01615
2498.19086	0.01620
2498.67304	0.01621
2499.15523	0.01620
