1999.61349	0.04603
2000.09568	0.04572
2000.57786	0.04557
2001.06004	0.04547
2001.54222	0.04541
2002.02441	0.04548
2002.50659	0.04572
2002.98877	0.04608
2003.47096	0.04634
2003.95314	0.04628
2004.43532	0.04603
2004.91751	0.04587
2005.39969	0.04586
2005.88187	0.04594
2006.36406	0.04606
2006.84624	0.04635
2007.32842	0.04685
2007.81061	0.04729
2008.29279	0.04738
2008.77497	0.04714
2009.25715	0.04678
2009.73934	0.04648
2010.22152	0.04633
2010.70370	0.04633
2011.18589	0.04648
2011.66807	0.04681
2012.15025	0.04718
2012.63244	0.04747
2013.11462	0.04765
2013.59680	0.04755
2014.07899	0.04719
2014.56117	0.04695
2015.04335	0.04712
2015.52554	0.04804
2016.00772	0.05024
2016.48990	0.05288
2016.97209	0.05348
2017.45427	0.05207
2017.93645	0.05123
2018.41863	0.05089
2018.90082	0.04983
2019.38300	0.04865
2019.86518	0.04822
2020.34737	0.04842
2020.82955	0.04862
2021.31173	0.04851
2021.79392	0.04864
2022.27610	0.04960
2022.75828	0.05062
2023.24047	0.05032
2023.72265	0.04914
2024.20483	0.04869
2024.68702	0.04918
2025.16920	0.04949
2025.65138	0.04921
2026.13356	0.04902
2026.61575	0.04967
2027.09793	0.05113
2027.58011	0.05211
2028.06230	0.05156
2028.54448	0.05058
2029.02666	0.05047
2029.50885	0.05039
2029.99103	0.04970
2030.47321	0.04917
2030.95540	0.04944
2031.43758	0.05100
2031.91976	0.05366
2032.40195	0.05538
2032.88413	0.05476
2033.36631	0.05318
2033.84850	0.05183
2034.33068	0.05066
2034.81286	0.05003
2035.29504	0.05011
2035.77723	0.05137
2036.25941	0.05487
2036.74159	0.05962
2037.22378	0.06135
2037.70596	0.05822
2038.18814	0.05401
2038.67033	0.05179
2039.15251	0.05125
2039.63469	0.05150
2040.11688	0.05282
2040.59906	0.05709
2041.08124	0.06513
2041.56343	0.07084
2042.04561	0.06705
2042.52779	0.05877
2043.00997	0.05412
2043.49216	0.05337
2043.97434	0.05372
2044.45652	0.05446
2044.93871	0.05741
2045.42089	0.06492
2045.90307	0.07404
2046.38526	0.07531
2046.86744	0.06677
2047.34962	0.05825
2047.83181	0.05506
2048.31399	0.05490
2048.79617	0.05619
2049.27836	0.05959
2049.76054	0.06624
2050.24272	0.07616
2050.72491	0.08288
2051.20709	0.07756
2051.68927	0.06543
2052.17145	0.05808
2052.65364	0.05706
2053.13582	0.05900
2053.61800	0.06206
2054.10019	0.06600
2054.58237	0.07470
2055.06455	0.08750
2055.54674	0.08962
2056.02892	0.07581
2056.51110	0.06236
2056.99329	0.05887
2057.47547	0.06072
2057.95765	0.06208
2058.43984	0.06291
2058.92202	0.07061
2059.40420	0.08901
2059.88638	0.10139
2060.36857	0.09019
2060.85075	0.07050
2061.33293	0.06203
2061.81512	0.06122
2062.29730	0.05967
2062.77948	0.05930
2063.26167	0.06782
2063.74385	0.09075
2064.22603	0.11542
2064.70822	0.11372
2065.19040	0.08943
2065.67258	0.07165
2066.15477	0.06479
2066.63695	0.06120
2067.11913	0.06134
2067.60132	0.07015
2068.08350	0.09439
2068.56568	0.12577
2069.04786	0.13141
2069.53005	0.10401
2070.01223	0.07635
2070.49441	0.06439
2070.97660	0.06141
2071.45878	0.06262
2071.94096	0.07155
2072.42315	0.09771
2072.90533	0.13655
2073.38751	0.14886
2073.86970	0.11599
2074.35188	0.07883
2074.83406	0.06341
2075.31625	0.06075
2075.79843	0.06279
2076.28061	0.07417
2076.76279	0.10591
2077.24498	0.15222
2077.72716	0.16653
2078.20934	0.12683
2078.69153	0.08224
2079.17371	0.06336
2079.65589	0.06002
2080.13808	0.06256
2080.62026	0.07484
2081.10244	0.10725
2081.58463	0.15569
2082.06681	0.17353
2082.54899	0.13301
2083.03118	0.08440
2083.51336	0.06339
2083.99554	0.06066
2084.47773	0.06461
2084.95991	0.07783
2085.44209	0.11220
2085.92427	0.16512
2086.40646	0.18475
2086.88864	0.14001
2087.37082	0.08769
2087.85301	0.06579
2088.33519	0.06293
2088.81737	0.06651
2089.29956	0.08202
2089.78174	0.12515
2090.26392	0.18681
2090.74611	0.19959
2091.22829	0.14287
2091.71047	0.08790
2092.19266	0.06665
2092.67484	0.06364
2093.15702	0.06845
2093.63920	0.08963
2094.12139	0.14142
2094.60357	0.20447
2095.08575	0.20484
2095.56794	0.13901
2096.05012	0.08510
2096.53230	0.06625
2097.01449	0.06465
2097.49667	0.07318
2097.97885	0.10372
2098.46104	0.16790
2098.94322	0.22793
2099.42540	0.20506
2099.90759	0.13009
2100.38977	0.08157
2100.87195	0.06725
2101.35414	0.06804
2101.83632	0.08249
2102.31850	0.12601
2102.80068	0.20070
2103.28287	0.24251
2103.76505	0.18977
2104.24723	0.11398
2104.72942	0.07652
2105.21160	0.06859
2105.69378	0.07455
2106.17597	0.10096
2106.65815	0.16332
2107.14033	0.24036
2107.62252	0.24301
2108.10470	0.16368
2108.58688	0.09761
2109.06907	0.07394
2109.55125	0.07361
2110.03343	0.08836
2110.51561	0.13003
2110.99780	0.20521
2111.47998	0.25951
2111.96216	0.21518
2112.44435	0.13195
2112.92653	0.08664
2113.40871	0.07718
2113.89090	0.08322
2114.37308	0.10719
2114.85526	0.16701
2115.33745	0.24584
2115.81963	0.25284
2116.30181	0.17432
2116.78400	0.10744
2117.26618	0.08276
2117.74836	0.07948
2118.23055	0.09136
2118.71273	0.13544
2119.19491	0.21595
2119.67709	0.26659
2120.15928	0.21482
2120.64146	0.13304
2121.12364	0.08910
2121.60583	0.07656
2122.08801	0.08212
2122.57019	0.11461
2123.05238	0.18624
2123.53456	0.25910
2124.01674	0.24013
2124.49893	0.15422
2124.98111	0.09425
2125.46329	0.07480
2125.94548	0.07735
2126.42766	0.10140
2126.90984	0.16051
2127.39202	0.23511
2127.87421	0.24009
2128.35639	0.16421
2128.83857	0.09906
2129.32076	0.07529
2129.80294	0.07561
2130.28512	0.09449
2130.76731	0.14372
2131.24949	0.21325
2131.73167	0.23194
2132.21386	0.16872
2132.69604	0.10273
2133.17822	0.07589
2133.66041	0.07463
2134.14259	0.08791
2134.62477	0.12323
2135.10696	0.17868
2135.58914	0.20377
2136.07132	0.15929
2136.55350	0.10166
2137.03569	0.07595
2137.51787	0.07218
2138.00005	0.07749
2138.48224	0.09813
2138.96442	0.13531
2139.44660	0.15523
2139.92879	0.12917
2140.41097	0.09061
2140.89315	0.07111
2141.37534	0.06500
2141.85752	0.06219
2142.33970	0.06123
2142.82189	0.06172
2143.30407	0.06308
2143.78625	0.06447
2144.26843	0.06453
2144.75062	0.06361
2145.23280	0.06483
2145.71498	0.07430
2146.19717	0.10144
2146.67935	0.14257
2147.16153	0.15877
2147.64372	0.12660
2148.12590	0.08677
2148.60808	0.07001
2149.09027	0.07146
2149.57245	0.08932
2150.05463	0.13460
2150.53682	0.19439
2151.01900	0.20451
2151.50118	0.14828
2151.98337	0.09509
2152.46555	0.07615
2152.94773	0.08071
2153.42991	0.10791
2153.91210	0.16791
2154.39428	0.23214
2154.87646	0.22171
2155.35865	0.14869
2155.84083	0.09560
2156.32301	0.08086
2156.80520	0.09100
2157.28738	0.13113
2157.76956	0.20673
2158.25175	0.26132
2158.73393	0.21784
2159.21611	0.13648
2159.69830	0.09197
2160.18048	0.08484
2160.66266	0.10555
2161.14484	0.16440
2161.62703	0.24860
2162.10921	0.26948
2162.59139	0.19289
2163.07358	0.11715
2163.55576	0.08772
2164.03794	0.09300
2164.52013	0.13137
2165.00231	0.20980
2165.48449	0.27894
2165.96668	0.24515
2166.44886	0.15497
2166.93104	0.09990
2167.41323	0.08903
2167.89541	0.11086
2168.37759	0.17280
2168.85978	0.25970
2169.34196	0.27888
2169.82414	0.19787
2170.30632	0.12010
2170.78851	0.09108
2171.27069	0.09919
2171.75287	0.14354
2172.23506	0.22591
2172.71724	0.28347
2173.19942	0.23306
2173.68161	0.14427
2174.16379	0.09725
2174.64597	0.09308
2175.12816	0.12392
2175.61034	0.19568
2176.09252	0.27199
2176.57471	0.25556
2177.05689	0.16698
2177.53907	0.10525
2178.02125	0.09042
2178.50344	0.11136
2178.98562	0.17178
2179.46780	0.25199
2179.94999	0.26193
2180.43217	0.18287
2180.91435	0.11282
2181.39654	0.08964
2181.87872	0.10341
2182.36090	0.15448
2182.84309	0.23189
2183.32527	0.25761
2183.80745	0.19031
2184.28964	0.11737
2184.77182	0.08896
2185.25400	0.09833
2185.73619	0.14340
2186.21837	0.21648
2186.70055	0.24826
2187.18273	0.18951
2187.66492	0.11773
2188.14710	0.08780
2188.62928	0.09538
2189.11147	0.13716
2189.59365	0.20523
2190.07583	0.23501
2190.55802	0.18067
2191.04020	0.11340
2191.52238	0.08561
2192.00457	0.09378
2192.48675	0.13441
2192.96893	0.19683
2193.45112	0.21855
2193.93330	0.16530
2194.41548	0.10537
2194.89766	0.08304
2195.37985	0.09386
2195.86203	0.13484
2196.34421	0.19018
2196.82640	0.19912
2197.30858	0.14567
2197.79076	0.09556
2198.27295	0.08092
2198.75513	0.09597
2199.23731	0.13796
2199.71950	0.18326
2200.20168	0.17641
2200.68386	0.12416
2201.16605	0.08600
2201.64823	0.08022
2202.13041	0.10062
2202.61260	0.14263
2203.09478	0.17307
2203.57696	0.15039
2204.05914	0.10351
2204.54133	0.07892
2205.02351	0.08209
2205.50569	0.10777
2205.98788	0.14553
2206.47006	0.15612
2206.95224	0.12279
2207.43443	0.08673
2207.91661	0.07557
2208.39879	0.08680
2208.88098	0.11557
2209.36316	0.14173
2209.84534	0.13197
2210.32753	0.09799
2210.80971	0.07657
2211.29189	0.07685
2211.77407	0.09418
2212.25626	0.12003
2212.73844	0.12782
2213.22062	0.10547
2213.70281	0.08058
2214.18499	0.07323
2214.66717	0.08195
2215.14936	0.10150
2215.63154	0.11581
2216.11372	0.10603
2216.59591	0.08407
2217.07809	0.07267
2217.56027	0.07571
2218.04246	0.08922
2218.52464	0.10367
2219.00682	0.10200
2219.48901	0.08538
2219.97119	0.07279
2220.45337	0.07213
2220.93555	0.08065
2221.41774	0.09242
2221.89992	0.09475
2222.38210	0.08382
2222.86429	0.07283
2223.34647	0.07067
2223.82865	0.07607
2224.31084	0.08465
2224.79302	0.08783
2225.27520	0.08124
2225.75739	0.07312
2226.23957	0.07090
2226.72175	0.07417
2227.20394	0.08012
2227.68612	0.08305
2228.16830	0.07915
2228.65048	0.07325
2229.13267	0.07110
2229.61485	0.07333
2230.09703	0.07800
2230.57922	0.08044
2231.06140	0.07745
2231.54358	0.07296
2232.02577	0.07190
2232.50795	0.07448
2232.99013	0.07782
2233.47232	0.07832
2233.95450	0.07577
2234.43668	0.07399
2234.91887	0.07470
2235.40105	0.07606
2235.88323	0.07694
2236.36541	0.07749
2236.84760	0.07774
2237.32978	0.07733
2237.81196	0.07624
2238.29415	0.07645
2238.77633	0.07913
2239.25851	0.08123
2239.74070	0.07976
2240.22288	0.07735
2240.70506	0.07851
2241.18725	0.08248
2241.66943	0.08382
2242.15161	0.08120
2242.63380	0.08027
2243.11598	0.08387
2243.59816	0.08683
2244.08035	0.08509
2244.56253	0.08324
2245.04471	0.08637
2245.52689	0.09049
2246.00908	0.08926
2246.49126	0.08623
2246.97344	0.08908
2247.45563	0.09510
2247.93781	0.09510
2248.41999	0.09062
2248.90218	0.09216
2249.38436	0.09988
2249.86654	0.10201
2250.34873	0.09657
2250.83091	0.09639
2251.31309	0.10514
2251.79528	0.10932
2252.27746	0.10326
2252.75964	0.10140
2253.24182	0.11080
2253.72401	0.11659
2254.20619	0.10990
2254.68837	0.10674
2255.17056	0.11689
2255.65274	0.12387
2256.13492	0.11626
2256.61711	0.11213
2257.09929	0.12310
2257.58147	0.13055
2258.06366	0.12173
2258.54584	0.11720
2259.02802	0.12903
2259.51021	0.13620
2259.99239	0.12662
2260.47457	0.12347
2260.95676	0.13688
2261.43894	0.14219
2261.92112	0.13095
2262.40330	0.13043
2262.88549	0.14557
2263.36767	0.14740
2263.84985	0.13484
2264.33204	0.13816
2264.81422	0.15349
2265.29640	0.15005
2265.77859	0.13787
2266.26077	0.14584
2266.74295	0.15860
2267.22514	0.14932
2267.70732	0.14024
2268.18950	0.15198
2268.67169	0.15868
2269.15387	0.14619
2269.63605	0.14469
2270.11823	0.15870
2270.60042	0.15717
2271.08260	0.14566
2271.56478	0.15291
2272.04697	0.16379
2272.52915	0.15392
2273.01133	0.14712
2273.49352	0.15848
2273.97570	0.16114
2274.45788	0.15098
2274.94007	0.15433
2275.42225	0.16282
2275.90443	0.15461
2276.38662	0.14862
2276.86880	0.15803
2277.35098	0.15956
2277.83317	0.14932
2278.31535	0.14890
2278.79753	0.15313
2279.27971	0.14810
2279.76190	0.14505
2280.24408	0.14681
2280.72626	0.14058
2281.20845	0.13278
2281.69063	0.13440
2282.17281	0.13564
2282.65500	0.12756
2283.13718	0.12024
2283.61936	0.12380
2284.10155	0.13563
2284.58373	0.14592
2285.06591	0.15058
2285.54810	0.15532
2286.03028	0.16359
2286.51246	0.17820
2286.99464	0.19562
2287.47683	0.19843
2287.95901	0.19375
2288.44119	0.20887
2288.92338	0.23537
2289.40556	0.24287
2289.88774	0.23622
2290.36993	0.23402
2290.85211	0.24560
2291.33429	0.27279
2291.81648	0.28395
2292.29866	0.26926
2292.78084	0.27722
2293.26303	0.31936
2293.74521	0.35006
2294.22739	0.33825
2294.70958	0.31086
2295.19176	0.31666
2295.67394	0.36522
2296.15612	0.39253
2296.63831	0.36799
2297.12049	0.35630
2297.60267	0.38102
2298.08486	0.40781
2298.56704	0.39437
2299.04922	0.36584
2299.53141	0.38489
2300.01359	0.45072
2300.49577	0.49080
2300.97796	0.46843
2301.46014	0.44262
2301.94232	0.45970
2302.42451	0.49872
2302.90669	0.49735
2303.38887	0.46548
2303.87105	0.45688
2304.35324	0.48789
2304.83542	0.53312
2305.31760	0.54528
2305.79979	0.54585
2306.28197	0.58786
2306.76415	0.66390
2307.24634	0.68484
2307.72852	0.65301
2308.21070	0.67340
2308.69289	0.76946
2309.17507	0.81948
2309.65725	0.75360
2310.13944	0.72940
2310.62162	0.80705
2311.10380	0.88698
2311.58599	0.82637
2312.06817	0.77616
2312.55035	0.82294
2313.03253	0.90013
2313.51472	0.87663
2313.99690	0.84045
2314.47908	0.87964
2314.96127	0.96406
2315.44345	0.99560
2315.92563	0.97144
2316.40782	0.97944
2316.89000	1.05386
2317.37218	1.14571
2317.85437	1.12776
2318.33655	1.08719
2318.81873	1.13702
2319.30092	1.24916
2319.78310	1.23393
2320.26528	1.18551
2320.74746	1.23858
2321.22965	1.34303
2321.71183	1.31709
2322.19401	1.29569
2322.67620	1.38791
2323.15838	1.51840
2323.64056	1.51148
2324.12275	1.53950
2324.60493	1.68562
2325.08711	1.79307
2325.56930	1.73994
2326.05148	1.76797
2326.53366	1.94584
2327.01585	2.12045
2327.49803	2.03969
2327.98021	1.99548
2328.46240	2.10599
2328.94458	2.18621
2329.42676	2.03656
2329.90894	1.98226
2330.39113	2.07445
2330.87331	2.09865
2331.35549	2.01999
2331.83768	2.08736
2332.31986	2.30369
2332.80204	2.31538
2333.28423	2.29232
2333.76641	2.49000
2334.24859	2.67922
2334.73078	2.43187
2335.21296	2.40151
2335.69514	2.74981
2336.17733	3.26645
2336.65951	2.75396
2337.14169	2.67696
2337.62387	2.84399
2338.10606	2.67922
2338.58824	2.56849
2339.07042	2.76175
2339.55261	3.01548
2340.03479	2.85347
2340.51697	3.34924
2340.99916	6.00000
2341.48134	6.00000
2341.96352	6.00000
2342.44571	6.00000
2342.92789	6.00000
2343.41007	3.83020
2343.89226	2.81581
2344.37444	2.44564
2344.85662	2.15134
2345.33881	2.03288
2345.82099	1.95572
2346.30317	1.82626
2346.78535	1.73587
2347.26754	1.64938
2347.74972	1.46644
2348.23190	1.29040
2348.71409	1.21072
2349.19627	1.23138
2349.67845	1.34707
2350.16064	1.48057
2350.64282	1.54366
2351.12500	1.65789
2351.60719	1.94346
2352.08937	2.27119
2352.57155	2.63585
2353.05374	6.00000
2353.53592	6.00000
2354.01810	6.00000
2354.50028	6.00000
2354.98247	6.00000
2355.46465	6.00000
2355.94683	6.00000
2356.42902	6.00000
2356.91120	6.00000
2357.39338	6.00000
2357.87557	6.00000
2358.35775	2.76705
2358.83993	2.44285
2359.32212	2.27243
2359.80430	2.15217
2360.28648	2.08236
2360.76867	2.07905
2361.25085	2.07876
2361.73303	2.07621
2362.21522	2.10032
2362.69740	2.10563
2363.17958	2.10645
2363.66176	2.12391
2364.14395	2.13193
2364.62613	2.14611
2365.10831	2.21861
2365.59050	2.37236
2366.07268	2.68716
2366.55486	3.85746
2367.03705	6.00000
2367.51923	6.00000
2368.00141	6.00000
2368.48360	6.00000
2368.96578	6.00000
2369.44796	3.01584
2369.93015	2.57393
2370.41233	2.29623
2370.89451	2.10210
2371.37669	1.94728
2371.85888	1.81419
2372.34106	1.70226
2372.82324	1.59486
2373.30543	1.49243
2373.78761	1.39247
2374.26979	1.29903
2374.75198	1.21255
2375.23416	1.13047
2375.71634	1.05450
2376.19853	0.98163
2376.68071	0.91191
2377.16289	0.84642
2377.64508	0.78579
2378.12726	0.72900
2378.60944	0.67503
2379.09163	0.62476
2379.57381	0.57822
2380.05599	0.53469
2380.53817	0.49291
2381.02036	0.45348
2381.50254	0.41725
2381.98472	0.38388
2382.46691	0.35227
2382.94909	0.32149
2383.43127	0.29198
2383.91346	0.26421
2384.39564	0.23866
2384.87782	0.21532
2385.36001	0.19398
2385.84219	0.17465
2386.32437	0.15741
2386.80656	0.14257
2387.28874	0.12999
2387.77092	0.11963
2388.25310	0.11132
2388.73529	0.10485
2389.21747	0.09991
2389.69965	0.09609
2390.18184	0.09323
2390.66402	0.09112
2391.14620	0.08971
2391.62839	0.08875
2392.11057	0.08807
2392.59275	0.08758
2393.07494	0.08719
2393.55712	0.08700
2394.03930	0.08688
2394.52149	0.08686
2395.00367	0.08684
2395.48585	0.08683
2395.96804	0.08686
2396.45022	0.08689
2396.93240	0.08693
2397.41458	0.08692
2397.89677	0.08695
2398.37895	0.08702
2398.86113	0.08710
2399.34332	0.08715
