3996.25459	0.06250
3994.32589	0.06315
3992.39720	0.06377
3990.46851	0.06410
3988.53981	0.06425
3986.61112	0.06457
3984.68242	0.06514
3982.75373	0.06554
3980.82503	0.06551
3978.89634	0.06539
3976.96765	0.06567
3975.03895	0.06602
3973.11026	0.06573
3971.18156	0.06484
3969.25287	0.06407
3967.32417	0.06378
3965.39548	0.06367
3963.46679	0.06346
3961.53809	0.06332
3959.60940	0.06367
3957.68070	0.06448
3955.75201	0.06533
3953.82331	0.06600
3951.89462	0.06634
3949.96593	0.06599
3948.03723	0.06511
3946.10854	0.06453
3944.17984	0.06468
3942.25115	0.06523
3940.32245	0.06569
3938.39376	0.06582
3936.46507	0.06545
3934.53637	0.06443
3932.60768	0.06310
3930.67898	0.06249
3928.75029	0.06305
3926.82159	0.06414
3924.89290	0.06514
3922.96421	0.06584
3921.03551	0.06589
3919.10682	0.06495
3917.17812	0.06352
3915.24943	0.06257
3913.32073	0.06222
3911.39204	0.06199
3909.46334	0.06191
3907.53465	0.06246
3905.60596	0.06374
3903.67726	0.06513
3901.74857	0.06615
3899.81987	0.06693
3897.89118	0.06738
3895.96248	0.06724
3894.03379	0.06638
3892.10510	0.06499
3890.17640	0.06392
3888.24771	0.06397
3886.31901	0.06476
3884.39032	0.06547
3882.46162	0.06602
3880.53293	0.06679
3878.60424	0.06735
3876.67554	0.06675
3874.74685	0.06490
3872.81815	0.06312
3870.88946	0.06343
3868.96076	0.06572
3867.03207	0.06771
3865.10338	0.06841
3863.17468	0.06880
3861.24599	0.06962
3859.31729	0.07021
3857.38860	0.06987
3855.45990	0.06876
3853.53121	0.06818
3851.60252	0.06895
3849.67382	0.06993
3847.74513	0.07048
3845.81643	0.07067
3843.88774	0.07062
3841.95904	0.07063
3840.03035	0.07102
3838.10166	0.07199
3836.17296	0.07345
3834.24427	0.07498
3832.31557	0.07622
3830.38688	0.07710
3828.45818	0.07784
3826.52949	0.07859
3824.60080	0.07911
3822.67210	0.07917
3820.74341	0.07927
3818.81471	0.08012
3816.88602	0.08156
3814.95732	0.08312
3813.02863	0.08468
3811.09994	0.08620
3809.17124	0.08730
3807.24255	0.08746
3805.31385	0.08716
3803.38516	0.08769
3801.45646	0.08950
3799.52777	0.09154
3797.59908	0.09282
3795.67038	0.09346
3793.74169	0.09413
3791.81299	0.09542
3789.88430	0.09736
3787.95560	0.09931
3786.02691	0.10061
3784.09822	0.10121
3782.16952	0.10172
3780.24083	0.10276
3778.31213	0.10446
3776.38344	0.10627
3774.45474	0.10763
3772.52605	0.10865
3770.59736	0.10975
3768.66866	0.11123
3766.73997	0.11316
3764.81127	0.11557
3762.88258	0.11810
3760.95388	0.11982
3759.02519	0.12010
3757.09650	0.11989
3755.16780	0.12053
3753.23911	0.12206
3751.31041	0.12392
3749.38172	0.12618
3747.45302	0.12890
3745.52433	0.13132
3743.59564	0.13304
3741.66694	0.13466
3739.73825	0.13659
3737.80955	0.13867
3735.88086	0.14069
3733.95216	0.14277
3732.02347	0.14541
3730.09478	0.14885
3728.16608	0.15290
3726.23739	0.15677
3724.30869	0.15931
3722.38000	0.16086
3720.45130	0.16352
3718.52261	0.16780
3716.59392	0.17195
3714.66522	0.17460
3712.73653	0.17606
3710.80783	0.17781
3708.87914	0.18044
3706.95044	0.18291
3705.02175	0.18498
3703.09305	0.18756
3701.16436	0.19092
3699.23567	0.19394
3697.30697	0.19614
3695.37828	0.19817
3693.44958	0.20016
3691.52089	0.20143
3689.59219	0.20144
3687.66350	0.20065
3685.73481	0.20001
3683.80611	0.19966
3681.87742	0.19915
3679.94872	0.19795
3678.02003	0.19566
3676.09133	0.19253
3674.16264	0.19015
3672.23395	0.18877
3670.30525	0.18645
3668.37656	0.18280
3666.44786	0.17939
3664.51917	0.17654
3662.59047	0.17382
3660.66178	0.17136
3658.73309	0.16907
3656.80439	0.16632
3654.87570	0.16308
3652.94700	0.15956
3651.01831	0.15541
3649.08961	0.15137
3647.16092	0.14948
3645.23223	0.14879
3643.30353	0.14769
3641.37484	0.14631
3639.44614	0.14517
3637.51745	0.14393
3635.58875	0.14217
3633.66006	0.14043
3631.73137	0.13950
3629.80267	0.13945
3627.87398	0.13989
3625.94528	0.14048
3624.01659	0.14047
3622.08789	0.13870
3620.15920	0.13499
3618.23051	0.13158
3616.30181	0.13021
3614.37312	0.12956
3612.44442	0.12856
3610.51573	0.12793
3608.58703	0.12816
3606.65834	0.12861
3604.72965	0.12883
3602.80095	0.12887
3600.87226	0.12877
3598.94356	0.12877
3597.01487	0.12938
3595.08617	0.13110
3593.15748	0.13420
3591.22879	0.13814
3589.30009	0.14106
3587.37140	0.14046
3585.44270	0.13705
3583.51401	0.13437
3581.58531	0.13321
3579.65662	0.13219
3577.72793	0.13169
3575.79923	0.13404
3573.87054	0.13875
3571.94184	0.14172
3570.01315	0.14115
3568.08445	0.14046
3566.15576	0.14317
3564.22707	0.14637
3562.29837	0.14658
3560.36968	0.14445
3558.44098	0.14173
3556.51229	0.13914
3554.58359	0.13739
3552.65490	0.13833
3550.72621	0.14269
3548.79751	0.14746
3546.86882	0.14880
3544.94012	0.14626
3543.01143	0.14287
3541.08273	0.14192
3539.15404	0.14475
3537.22535	0.14918
3535.29665	0.15038
3533.36796	0.14676
3531.43926	0.14251
3529.51057	0.14161
3527.58187	0.14294
3525.65318	0.14391
3523.72449	0.14470
3521.79579	0.14595
3519.86710	0.14704
3517.93840	0.14831
3516.00971	0.15096
3514.08101	0.15468
3512.15232	0.15753
3510.22362	0.15760
3508.29493	0.15435
3506.36624	0.15018
3504.43754	0.14947
3502.50885	0.15442
3500.58015	0.16234
3498.65146	0.16912
3496.72276	0.17325
3494.79407	0.17517
3492.86538	0.17508
3490.93668	0.17295
3489.00799	0.17059
3487.07929	0.16972
3485.15060	0.16855
3483.22190	0.16583
3481.29321	0.16628
3479.36452	0.17349
3477.43582	0.18230
3475.50713	0.18552
3473.57843	0.18310
3471.64974	0.18025
3469.72104	0.18164
3467.79235	0.18780
3465.86366	0.19288
3463.93496	0.18939
3462.00627	0.17900
3460.07757	0.17097
3458.14888	0.17033
3456.22018	0.17589
3454.29149	0.18403
3452.36280	0.18928
3450.43410	0.18690
3448.50541	0.17870
3446.57671	0.17215
3444.64802	0.17175
3442.71932	0.17520
3440.79063	0.17815
3438.86194	0.17951
3436.93324	0.18115
3435.00455	0.18365
3433.07585	0.18568
3431.14716	0.18838
3429.21846	0.19418
3427.28977	0.20135
3425.36108	0.20600
3423.43238	0.20750
3421.50369	0.20669
3419.57499	0.20397
3417.64630	0.20128
3415.71760	0.19966
3413.78891	0.19738
3411.86022	0.19449
3409.93152	0.19380
3408.00283	0.19570
3406.07413	0.19772
3404.14544	0.19804
3402.21674	0.19664
3400.28805	0.19508
3398.35936	0.19462
3396.43066	0.19425
3394.50197	0.19267
3392.57327	0.19162
3390.64458	0.19331
3388.71588	0.19733
3386.78719	0.20075
3384.85850	0.20046
3382.92980	0.19681
3381.00111	0.19458
3379.07241	0.19659
3377.14372	0.19912
3375.21502	0.19787
3373.28633	0.19572
3371.35764	0.19832
3369.42894	0.20497
3367.50025	0.21026
3365.57155	0.21232
3363.64286	0.21359
3361.71416	0.21497
3359.78547	0.21542
3357.85678	0.21662
3355.92808	0.22170
3353.99939	0.22953
3352.07069	0.23581
3350.14200	0.23834
3348.21330	0.23807
3346.28461	0.23624
3344.35592	0.23249
3342.42722	0.22542
3340.49853	0.21611
3338.56983	0.21003
3336.64114	0.21116
3334.71244	0.21612
3332.78375	0.21935
3330.85506	0.22076
3328.92636	0.22298
3326.99767	0.22553
3325.06897	0.22742
3323.14028	0.23031
3321.21158	0.23553
3319.28289	0.24216
3317.35420	0.24864
3315.42550	0.25336
3313.49681	0.25422
3311.56811	0.25054
3309.63942	0.24417
3307.71072	0.23827
3305.78203	0.23537
3303.85333	0.23641
3301.92464	0.24057
3299.99595	0.24522
3298.06725	0.24711
3296.13856	0.24704
3294.20986	0.24997
3292.28117	0.25656
3290.35247	0.26122
3288.42378	0.26084
3286.49509	0.25699
3284.56639	0.25085
3282.63770	0.24422
3280.70900	0.24215
3278.78031	0.24814
3276.85161	0.25867
3274.92292	0.26457
3272.99423	0.26035
3271.06553	0.25166
3269.13684	0.24826
3267.20814	0.25220
3265.27945	0.25819
3263.35075	0.26131
3261.42206	0.26009
3259.49337	0.25622
3257.56467	0.25340
3255.63598	0.25287
3253.70728	0.25175
3251.77859	0.24825
3249.84989	0.24430
3247.92120	0.24151
3245.99251	0.23920
3244.06381	0.23702
3242.13512	0.23582
3240.20642	0.23614
3238.27773	0.23813
3236.34903	0.24151
3234.42034	0.24462
3232.49165	0.24540
3230.56295	0.24378
3228.63426	0.24083
3226.70556	0.23660
3224.77687	0.23171
3222.84817	0.22954
3220.91948	0.23271
3218.99079	0.23893
3217.06209	0.24345
3215.13340	0.24396
3213.20470	0.24067
3211.27601	0.23491
3209.34731	0.23009
3207.41862	0.22983
3205.48993	0.23324
3203.56123	0.23568
3201.63254	0.23488
3199.70384	0.23288
3197.77515	0.23165
3195.84645	0.23042
3193.91776	0.22845
3191.98907	0.22697
3190.06037	0.22659
3188.13168	0.22588
3186.20298	0.22449
3184.27429	0.22427
3182.34559	0.22588
3180.41690	0.22759
3178.48821	0.22840
3176.55951	0.22882
3174.63082	0.22846
3172.70212	0.22663
3170.77343	0.22458
3168.84473	0.22397
3166.91604	0.22415
3164.98735	0.22353
3163.05865	0.22210
3161.12996	0.22081
3159.20126	0.22009
3157.27257	0.22040
3155.34387	0.22240
3153.41518	0.22543
3151.48649	0.22714
3149.55779	0.22611
3147.62910	0.22386
3145.70040	0.22300
3143.77171	0.22428
3141.84301	0.22643
3139.91432	0.22769
3137.98563	0.22709
3136.05693	0.22526
3134.12824	0.22390
3132.19954	0.22404
3130.27085	0.22519
3128.34215	0.22640
3126.41346	0.22732
3124.48477	0.22811
3122.55607	0.22908
3120.62738	0.23042
3118.69868	0.23174
3116.76999	0.23209
3114.84129	0.23095
3112.91260	0.22952
3110.98390	0.22972
3109.05521	0.23169
3107.12652	0.23362
3105.19782	0.23426
3103.26913	0.23430
3101.34043	0.23503
3099.41174	0.23700
3097.48304	0.23973
3095.55435	0.24217
3093.62566	0.24388
3091.69696	0.24513
3089.76827	0.24576
3087.83957	0.24533
3085.91088	0.24463
3083.98218	0.24513
3082.05349	0.24663
3080.12480	0.24766
3078.19610	0.24768
3076.26741	0.24771
3074.33871	0.24862
3072.41002	0.25030
3070.48132	0.25210
3068.55263	0.25324
3066.62394	0.25320
3064.69524	0.25235
3062.76655	0.25188
3060.83785	0.25254
3058.90916	0.25401
3056.98046	0.25542
3055.05177	0.25606
3053.12308	0.25621
3051.19438	0.25682
3049.26569	0.25797
3047.33699	0.25862
3045.40830	0.25836
3043.47960	0.25809
3041.55091	0.25867
3039.62222	0.26019
3037.69352	0.26214
3035.76483	0.26379
3033.83613	0.26472
3031.90744	0.26541
3029.97874	0.26666
3028.05005	0.26861
3026.12136	0.27083
3024.19266	0.27305
3022.26397	0.27529
3020.33527	0.27757
3018.40658	0.27988
3016.47788	0.28232
3014.54919	0.28490
3012.62050	0.28753
3010.69180	0.29023
3008.76311	0.29317
3006.83441	0.29593
3004.90572	0.29762
3002.97702	0.29810
3001.04833	0.29836
2999.11964	0.29888
2997.19094	0.29933
2995.26225	0.30015
2993.33355	0.30278
2991.40486	0.30752
2989.47616	0.31317
2987.54747	0.31871
2985.61878	0.32407
2983.69008	0.32958
2981.76139	0.33565
2979.83269	0.34245
2977.90400	0.34940
2975.97530	0.35548
2974.04661	0.36057
2972.11792	0.36580
2970.18922	0.37241
2968.26053	0.38016
2966.33183	0.38768
2964.40314	0.39460
2962.47444	0.40200
2960.54575	0.40991
2958.61706	0.41613
2956.68836	0.41873
2954.75967	0.41850
2952.83097	0.41782
2950.90228	0.41864
2948.97358	0.42231
2947.04489	0.42966
2945.11620	0.43971
2943.18750	0.44980
2941.25881	0.45855
2939.33011	0.46723
2937.40142	0.47723
2935.47272	0.48768
2933.54403	0.49711
2931.61534	0.50541
2929.68664	0.51288
2927.75795	0.51839
2925.82925	0.51961
2923.90056	0.51528
2921.97186	0.50599
2920.04317	0.49259
2918.11448	0.47646
2916.18578	0.46031
2914.25709	0.44612
2912.32839	0.43394
2910.39970	0.42318
2908.47100	0.41354
2906.54231	0.40472
2904.61361	0.39631
2902.68492	0.38820
2900.75623	0.38062
2898.82753	0.37374
2896.89884	0.36730
2894.97014	0.36097
2893.04145	0.35472
2891.11275	0.34894
2889.18406	0.34390
2887.25537	0.33957
2885.32667	0.33578
2883.39798	0.33266
2881.46928	0.33069
2879.54059	0.33018
2877.61189	0.33088
2875.68320	0.33212
2873.75451	0.33327
2871.82581	0.33385
2869.89712	0.33393
2867.96842	0.33431
2866.03973	0.33589
2864.11103	0.33889
2862.18234	0.34311
2860.25365	0.34822
2858.32495	0.35309
2856.39626	0.35510
2854.46756	0.35166
2852.53887	0.34227
2850.61017	0.32854
2848.68148	0.31277
2846.75279	0.29683
2844.82409	0.28198
2842.89540	0.26908
2840.96670	0.25860
2839.03801	0.25045
2837.10931	0.24402
2835.18062	0.23858
2833.25193	0.23366
2831.32323	0.22914
2829.39454	0.22506
2827.46584	0.22135
2825.53715	0.21788
2823.60845	0.21459
2821.67976	0.21152
2819.75107	0.20872
2817.82237	0.20610
2815.89368	0.20348
2813.96498	0.20078
2812.03629	0.19807
2810.10759	0.19549
2808.17890	0.19303
2806.25021	0.19058
2804.32151	0.18805
2802.39282	0.18551
2800.46412	0.18309
2798.53543	0.18084
2796.60673	0.17868
2794.67804	0.17657
2792.74935	0.17454
2790.82065	0.17251
2788.89196	0.17035
2786.96326	0.16818
2785.03457	0.16624
2783.10587	0.16454
2781.17718	0.16297
2779.24849	0.16143
2777.31979	0.15991
2775.39110	0.15840
2773.46240	0.15689
2771.53371	0.15541
2769.60501	0.15397
2767.67632	0.15255
2765.74763	0.15116
2763.81893	0.14984
2761.89024	0.14863
2759.96154	0.14743
2758.03285	0.14614
2756.10415	0.14484
2754.17546	0.14371
2752.24677	0.14273
2750.31807	0.14173
2748.38938	0.14063
2746.46068	0.13947
2744.53199	0.13828
2742.60329	0.13713
2740.67460	0.13602
2738.74591	0.13494
2736.81721	0.13381
2734.88852	0.13258
2732.95982	0.13130
2731.03113	0.13008
2729.10243	0.12891
2727.17374	0.12767
2725.24505	0.12623
2723.31635	0.12465
2721.38766	0.12312
2719.45896	0.12177
2717.53027	0.12055
2715.60157	0.11941
2713.67288	0.11840
2711.74419	0.11750
2709.81549	0.11663
2707.88680	0.11573
2705.95810	0.11477
2704.02941	0.11377
2702.10071	0.11275
2700.17202	0.11178
2698.24332	0.11086
2696.31463	0.10998
2694.38594	0.10910
2692.45724	0.10830
2690.52855	0.10758
2688.59985	0.10684
2686.67116	0.10593
2684.74246	0.10487
2682.81377	0.10382
2680.88508	0.10286
2678.95638	0.10200
2677.02769	0.10122
2675.09899	0.10053
2673.17030	0.09988
2671.24160	0.09927
2669.31291	0.09873
2667.38422	0.09826
2665.45552	0.09767
2663.52683	0.09696
2661.59813	0.09633
2659.66944	0.09594
2657.74074	0.09562
2655.81205	0.09517
2653.88336	0.09459
2651.95466	0.09403
2650.02597	0.09355
2648.09727	0.09311
2646.16858	0.09265
2644.23988	0.09222
2642.31119	0.09186
2640.38250	0.09156
2638.45380	0.09125
2636.52511	0.09092
2634.59641	0.09066
2632.66772	0.09052
2630.73902	0.09041
2628.81033	0.09023
2626.88164	0.08999
2624.95294	0.08977
2623.02425	0.08958
2621.09555	0.08942
2619.16686	0.08928
2617.23816	0.08915
2615.30947	0.08899
2613.38078	0.08880
2611.45208	0.08864
2609.52339	0.08860
2607.59469	0.08863
2605.66600	0.08868
2603.73730	0.08866
2601.80861	0.08857
2599.87992	0.08853
2597.95122	0.08861
2596.02253	0.08877
2594.09383	0.08891
2592.16514	0.08899
2590.23644	0.08902
2588.30775	0.08906
2586.37906	0.08926
2584.45036	0.08965
2582.52167	0.09008
2580.59297	0.09040
2578.66428	0.09066
2576.73558	0.09095
2574.80689	0.09133
2572.87820	0.09176
2570.94950	0.09220
2569.02081	0.09262
2567.09211	0.09302
2565.16342	0.09342
2563.23472	0.09388
2561.30603	0.09438
2559.37734	0.09488
2557.44864	0.09534
2555.51995	0.09582
2553.59125	0.09630
2551.66256	0.09676
2549.73386	0.09721
2547.80517	0.09774
2545.87648	0.09832
2543.94778	0.09889
2542.01909	0.09941
2540.09039	0.09991
2538.16170	0.10040
2536.23300	0.10083
2534.30431	0.10122
2532.37562	0.10159
2530.44692	0.10193
2528.51823	0.10223
2526.58953	0.10253
2524.66084	0.10294
2522.73214	0.10353
2520.80345	0.10419
2518.87476	0.10479
2516.94606	0.10527
2515.01737	0.10569
2513.08867	0.10615
2511.15998	0.10667
2509.23128	0.10721
2507.30259	0.10773
2505.37389	0.10822
2503.44520	0.10867
2501.51651	0.10908
2499.58781	0.10949
2497.65912	0.10989
2495.73042	0.11026
2493.80173	0.11057
2491.87303	0.11083
2489.94434	0.11107
2488.01565	0.11136
2486.08695	0.11175
2484.15826	0.11220
2482.22956	0.11266
2480.30087	0.11310
2478.37217	0.11349
2476.44348	0.11384
2474.51479	0.11414
2472.58609	0.11443
2470.65740	0.11484
2468.72870	0.11539
2466.80001	0.11600
2464.87131	0.11651
2462.94262	0.11689
2461.01393	0.11728
2459.08523	0.11776
2457.15654	0.11826
2455.22784	0.11869
2453.29915	0.11908
2451.37045	0.11951
2449.44176	0.12000
2447.51307	0.12054
2445.58437	0.12112
2443.65568	0.12173
2441.72698	0.12239
2439.79829	0.12306
2437.86959	0.12372
2435.94090	0.12438
2434.01221	0.12504
2432.08351	0.12569
2430.15482	0.12635
2428.22612	0.12706
2426.29743	0.12783
2424.36873	0.12863
2422.44004	0.12942
2420.51135	0.13018
2418.58265	0.13088
2416.65396	0.13151
2414.72526	0.13212
2412.79657	0.13271
2410.86787	0.13323
2408.93918	0.13372
2407.01049	0.13425
2405.08179	0.13490
2403.15310	0.13561
2401.22440	0.13628
2399.29571	0.13685
2397.36701	0.13734
2395.43832	0.13784
2393.50963	0.13838
2391.58093	0.13897
2389.65224	0.13962
2387.72354	0.14035
2385.79485	0.14109
2383.86615	0.14172
2381.93746	0.14214
2380.00877	0.14237
2378.08007	0.14253
2376.15138	0.14272
2374.22268	0.14291
2372.29399	0.14309
2370.36529	0.14351
2368.43660	0.14440
2366.50791	0.14565
2364.57921	0.14692
2362.65052	0.14777
2360.72182	0.14791
2358.79313	0.14781
2356.86443	0.14842
2354.93574	0.14975
2353.00705	0.15104
2351.07835	0.15200
2349.14966	0.15274
2347.22096	0.15334
2345.29227	0.15382
2343.36357	0.15441
2341.43488	0.15533
2339.50619	0.15616
2337.57749	0.15660
2335.64880	0.15692
2333.72010	0.15728
2331.79141	0.15761
2329.86271	0.15812
2327.93402	0.15906
2326.00533	0.16020
2324.07663	0.16123
2322.14794	0.16216
2320.21924	0.16313
2318.29055	0.16415
2316.36185	0.16512
2314.43316	0.16593
2312.50447	0.16661
2310.57577	0.16721
2308.64708	0.16783
2306.71838	0.16853
2304.78969	0.16930
2302.86099	0.17015
2300.93230	0.17114
2299.00360	0.17218
2297.07491	0.17304
2295.14622	0.17364
2293.21752	0.17409
2291.28883	0.17459
2289.36013	0.17525
2287.43144	0.17607
2285.50274	0.17701
2283.57405	0.17795
2281.64536	0.17876
2279.71666	0.17946
2277.78797	0.18018
2275.85927	0.18096
2273.93058	0.18171
2272.00188	0.18241
2270.07319	0.18310
2268.14450	0.18379
2266.21580	0.18446
2264.28711	0.18513
2262.35841	0.18581
2260.42972	0.18645
2258.50102	0.18709
2256.57233	0.18775
2254.64364	0.18845
2252.71494	0.18916
2250.78625	0.18978
2248.85755	0.19027
2246.92886	0.19068
2245.00016	0.19117
2243.07147	0.19179
2241.14278	0.19248
2239.21408	0.19316
2237.28539	0.19377
2235.35669	0.19432
2233.42800	0.19486
2231.49930	0.19540
2229.57061	0.19593
2227.64192	0.19646
2225.71322	0.19703
2223.78453	0.19762
2221.85583	0.19818
2219.92714	0.19871
2217.99844	0.19919
2216.06975	0.19962
2214.14106	0.20007
2212.21236	0.20059
2210.28367	0.20114
2208.35497	0.20162
2206.42628	0.20204
2204.49758	0.20248
2202.56889	0.20296
2200.64020	0.20347
2198.71150	0.20397
2196.78281	0.20440
2194.85411	0.20471
2192.92542	0.20504
2190.99672	0.20548
2189.06803	0.20597
2187.13934	0.20636
2185.21064	0.20670
2183.28195	0.20705
2181.35325	0.20735
2179.42456	0.20761
2177.49586	0.20788
2175.56717	0.20820
2173.63848	0.20855
2171.70978	0.20893
2169.78109	0.20922
2167.85239	0.20933
2165.92370	0.20931
2163.99500	0.20929
2162.06631	0.20935
2160.13762	0.20954
2158.20892	0.20991
2156.28023	0.21039
2154.35153	0.21074
2152.42284	0.21085
2150.49414	0.21077
2148.56545	0.21061
2146.63676	0.21044
2144.70806	0.21035
2142.77937	0.21044
2140.85067	0.21060
2138.92198	0.21065
2136.99328	0.21061
2135.06459	0.21063
2133.13590	0.21071
2131.20720	0.21076
2129.27851	0.21072
2127.34981	0.21058
2125.42112	0.21035
2123.49242	0.21007
2121.56373	0.20981
2119.63504	0.20962
2117.70634	0.20943
2115.77765	0.20917
2113.84895	0.20890
2111.92026	0.20872
2109.99156	0.20867
2108.06287	0.20863
2106.13417	0.20848
2104.20548	0.20817
2102.27679	0.20779
2100.34809	0.20748
2098.41940	0.20724
2096.49070	0.20698
2094.56201	0.20662
2092.63331	0.20620
2090.70462	0.20580
2088.77593	0.20544
2086.84723	0.20505
2084.91854	0.20458
2082.98984	0.20405
2081.06115	0.20354
2079.13245	0.20309
2077.20376	0.20265
2075.27507	0.20210
2073.34637	0.20147
2071.41768	0.20094
2069.48898	0.20054
2067.56029	0.20005
2065.63159	0.19937
2063.70290	0.19870
2061.77421	0.19823
2059.84551	0.19784
2057.91682	0.19732
2055.98812	0.19667
2054.05943	0.19594
2052.13073	0.19512
2050.20204	0.19428
2048.27335	0.19356
2046.34465	0.19298
2044.41596	0.19245
2042.48726	0.19186
2040.55857	0.19118
2038.62987	0.19043
2036.70118	0.18967
2034.77249	0.18898
2032.84379	0.18832
2030.91510	0.18763
2028.98640	0.18684
2027.05771	0.18602
2025.12901	0.18526
2023.20032	0.18457
2021.27163	0.18387
2019.34293	0.18302
2017.41424	0.18204
2015.48554	0.18110
2013.55685	0.18031
2011.62815	0.17966
2009.69946	0.17903
2007.77077	0.17831
2005.84207	0.17747
2003.91338	0.17659
2001.98468	0.17574
2000.05599	0.17498
1998.12729	0.17433
1996.19860	0.17373
1994.26991	0.17302
1992.34121	0.17213
1990.41252	0.17115
1988.48382	0.17025
1986.55513	0.16946
1984.62643	0.16875
1982.69774	0.16805
1980.76905	0.16735
1978.84035	0.16665
1976.91166	0.16598
1974.98296	0.16538
1973.05427	0.16483
1971.12557	0.16425
1969.19688	0.16353
1967.26819	0.16268
1965.33949	0.16189
1963.41080	0.16131
1961.48210	0.16084
1959.55341	0.16035
1957.62471	0.15981
1955.69602	0.15921
1953.76733	0.15858
1951.83863	0.15799
1949.90994	0.15750
1947.98124	0.15706
1946.05255	0.15655
1944.12385	0.15598
1942.19516	0.15544
1940.26647	0.15496
1938.33777	0.15456
1936.40908	0.15426
1934.48038	0.15409
1932.55169	0.15399
1930.62299	0.15387
1928.69430	0.15380
1926.76561	0.15382
1924.83691	0.15389
1922.90822	0.15393
1920.97952	0.15388
1919.05083	0.15372
1917.12213	0.15351
1915.19344	0.15333
1913.26475	0.15312
1911.33605	0.15274
1909.40736	0.15216
1907.47866	0.15150
1905.54997	0.15088
1903.62127	0.15039
1901.69258	0.15006
1899.76388	0.14981
1897.83519	0.14960
1895.90650	0.14945
1893.97780	0.14933
1892.04911	0.14922
1890.12041	0.14914
1888.19172	0.14908
1886.26302	0.14907
1884.33433	0.14905
1882.40564	0.14902
1880.47694	0.14905
1878.54825	0.14917
1876.61955	0.14930
1874.69086	0.14946
1872.76216	0.14964
1870.83347	0.14980
1868.90478	0.14989
1866.97608	0.14998
1865.04739	0.15023
1863.11869	0.15067
1861.19000	0.15116
1859.26130	0.15162
1857.33261	0.15201
1855.40392	0.15235
1853.47522	0.15269
1851.54653	0.15311
1849.61783	0.15354
1847.68914	0.15396
1845.76044	0.15441
1843.83175	0.15492
1841.90306	0.15548
1839.97436	0.15611
1838.04567	0.15681
1836.11697	0.15752
1834.18828	0.15817
1832.25958	0.15881
1830.33089	0.15956
1828.40220	0.16044
1826.47350	0.16135
1824.54481	0.16227
1822.61611	0.16319
1820.68742	0.16405
1818.75872	0.16492
1816.83003	0.16583
1814.90134	0.16683
1812.97264	0.16796
1811.04395	0.16917
1809.11525	0.17033
1807.18656	0.17144
1805.25786	0.17256
1803.32917	0.17380
1801.40048	0.17530
1799.47178	0.17695
1797.54309	0.17856
1795.61439	0.18014
1793.68570	0.18181
1791.75700	0.18357
1789.82831	0.18532
1787.89962	0.18707
1785.97092	0.18895
1784.04223	0.19098
1782.11353	0.19315
1780.18484	0.19553
1778.25614	0.19802
1776.32745	0.20044
1774.39876	0.20316
1772.47006	0.20665
1770.54137	0.21073
1768.61267	0.21506
1766.68398	0.21975
1764.75528	0.22548
1762.82659	0.23343
1760.89790	0.24432
1758.96920	0.25774
1757.04051	0.27317
1755.11181	0.29002
1753.18312	0.30761
1751.25442	0.32665
1749.32573	0.34672
1747.39704	0.36273
1745.46834	0.37158
1743.53965	0.37425
1741.61095	0.37141
1739.68226	0.36522
1737.75356	0.35849
1735.82487	0.35104
1733.89618	0.34197
1731.96748	0.33348
1730.03879	0.32748
1728.11009	0.32301
1726.18140	0.31896
1724.25270	0.31507
1722.32401	0.31146
1720.39532	0.30809
1718.46662	0.30427
1716.53793	0.29960
1714.60923	0.29558
1712.68054	0.29314
1710.75184	0.29169
1708.82315	0.29078
1706.89446	0.29043
1704.96576	0.29090
1703.03707	0.29242
1701.10837	0.29519
1699.17968	0.29889
1697.25098	0.30238
1695.32229	0.30520
1693.39359	0.30781
1691.46490	0.31047
1689.53621	0.31306
1687.60751	0.31544
1685.67882	0.31786
1683.75012	0.32081
1681.82143	0.32390
1679.89273	0.32680
1677.96404	0.32988
1676.03535	0.33339
1674.10665	0.33728
1672.17796	0.34103
1670.24926	0.34377
1668.32057	0.34584
1666.39187	0.34897
1664.46318	0.35418
1662.53449	0.36080
1660.60579	0.36618
1658.67710	0.36829
1656.74840	0.36764
1654.81971	0.36490
1652.89101	0.36174
1650.96232	0.36084
1649.03363	0.36024
1647.10493	0.35835
1645.17624	0.35715
1643.24754	0.35798
1641.31885	0.36004
1639.39015	0.36231
1637.46146	0.36327
1635.53277	0.36245
1633.60407	0.36190
1631.67538	0.36166
1629.74668	0.36038
1627.81799	0.35771
1625.88929	0.35375
1623.96060	0.34882
1622.03191	0.34361
1620.10321	0.33766
1618.17452	0.32936
1616.24582	0.31944
1614.31713	0.31150
1612.38843	0.30605
1610.45974	0.30119
1608.53105	0.29615
1606.60235	0.29159
1604.67366	0.28816
1602.74496	0.28584
1600.81627	0.28429
1598.88757	0.28332
1596.95888	0.28284
1595.03019	0.28277
1593.10149	0.28298
1591.17280	0.28322
1589.24410	0.28330
1587.31541	0.28322
1585.38671	0.28317
1583.45802	0.28342
1581.52933	0.28398
1579.60063	0.28466
1577.67194	0.28560
1575.74324	0.28735
1573.81455	0.28988
1571.88585	0.29254
1569.95716	0.29496
1568.02847	0.29710
1566.09977	0.29908
1564.17108	0.30097
1562.24238	0.30296
1560.31369	0.30614
1558.38499	0.31098
1556.45630	0.31404
1554.52761	0.31451
1552.59891	0.31496
1550.67022	0.31695
1548.74152	0.32015
1546.81283	0.32258
1544.88413	0.32263
1542.95544	0.32008
1541.02675	0.31560
1539.09805	0.31162
1537.16936	0.30970
1535.24066	0.30889
1533.31197	0.30869
1531.38327	0.30906
1529.45458	0.30929
1527.52589	0.30848
1525.59719	0.30636
1523.66850	0.30335
1521.73980	0.29995
1519.81111	0.29619
1517.88241	0.29189
1515.95372	0.28767
1514.02503	0.28455
1512.09633	0.28261
1510.16764	0.28114
1508.23894	0.27930
1506.31025	0.27683
1504.38155	0.27479
1502.45286	0.27362
1500.52416	0.27311
1498.59547	0.27313
1496.66678	0.27349
1494.73808	0.27389
1492.80939	0.27420
1490.88069	0.27435
1488.95200	0.27441
1487.02330	0.27479
1485.09461	0.27588
1483.16592	0.27764
1481.23722	0.27972
1479.30853	0.28188
1477.37983	0.28451
1475.45114	0.28902
1473.52244	0.29741
1471.59375	0.30925
1469.66506	0.32045
1467.73636	0.32890
1465.80767	0.33498
1463.87897	0.33889
1461.95028	0.34118
1460.02158	0.34293
1458.09289	0.34468
1456.16420	0.34559
1454.23550	0.34473
1452.30681	0.34255
1450.37811	0.33962
1448.44942	0.33633
1446.52072	0.33321
1444.59203	0.33080
1442.66334	0.32936
1440.73464	0.32875
1438.80595	0.32827
1436.87725	0.32690
1434.94856	0.32461
1433.01986	0.32241
1431.09117	0.32067
1429.16248	0.31935
1427.23378	0.31887
1425.30509	0.31972
1423.37639	0.32171
1421.44770	0.32376
1419.51900	0.32477
1417.59031	0.32489
1415.66162	0.32498
1413.73292	0.32510
1411.80423	0.32496
1409.87553	0.32448
1407.94684	0.32373
1406.01814	0.32274
1404.08945	0.32178
1402.16076	0.32109
1400.23206	0.32055
1398.30337	0.32003
1396.37467	0.31966
1394.44598	0.31949
1392.51728	0.31946
1390.58859	0.31978
1388.65990	0.32059
1386.73120	0.32170
1384.80251	0.32293
1382.87381	0.32438
1380.94512	0.32582
1379.01642	0.32640
1377.08773	0.32510
1375.15904	0.32176
1373.23034	0.31759
1371.30165	0.31412
1369.37295	0.31169
1367.44426	0.31006
1365.51556	0.30898
1363.58687	0.30797
1361.65818	0.30662
1359.72948	0.30531
1357.80079	0.30458
1355.87209	0.30435
1353.94340	0.30414
1352.01470	0.30367
1350.08601	0.30290
1348.15732	0.30205
1346.22862	0.30158
1344.29993	0.30184
1342.37123	0.30254
1340.44254	0.30297
1338.51384	0.30271
1336.58515	0.30205
1334.65646	0.30150
1332.72776	0.30131
1330.79907	0.30156
1328.87037	0.30214
1326.94168	0.30271
1325.01298	0.30302
1323.08429	0.30308
1321.15560	0.30293
1319.22690	0.30249
1317.29821	0.30186
1315.36951	0.30137
1313.44082	0.30128
1311.51212	0.30148
1309.58343	0.30160
1307.65474	0.30140
1305.72604	0.30096
1303.79735	0.30045
1301.86865	0.29989
1299.93996	0.29940
1298.01126	0.29915
1296.08257	0.29918
1294.15387	0.29944
1292.22518	0.29991
1290.29649	0.30059
1288.36779	0.30137
1286.43910	0.30228
1284.51040	0.30362
1282.58171	0.30550
1280.65301	0.30751
1278.72432	0.30908
1276.79563	0.31003
1274.86693	0.31051
1272.93824	0.31070
1271.00954	0.31079
1269.08085	0.31101
1267.15215	0.31124
1265.22346	0.31112
1263.29477	0.31069
1261.36607	0.31050
1259.43738	0.31090
1257.50868	0.31166
1255.57999	0.31236
1253.65129	0.31277
1251.72260	0.31298
1249.79391	0.31341
1247.86521	0.31421
1245.93652	0.31492
1244.00782	0.31499
1242.07913	0.31446
1240.15043	0.31382
1238.22174	0.31338
1236.29305	0.31298
1234.36435	0.31226
1232.43566	0.31109
1230.50696	0.30969
1228.57827	0.30833
1226.64957	0.30701
1224.72088	0.30570
1222.79219	0.30444
1220.86349	0.30329
1218.93480	0.30206
1217.00610	0.30059
1215.07741	0.29902
1213.14871	0.29784
1211.22002	0.29747
1209.29133	0.29793
1207.36263	0.29894
1205.43394	0.30014
1203.50524	0.30136
1201.57655	0.30254
1199.64785	0.30369
1197.71916	0.30489
1195.79047	0.30629
1193.86177	0.30795
1191.93308	0.30967
1190.00438	0.31122
1188.07569	0.31272
1186.14699	0.31444
1184.21830	0.31640
1182.28961	0.31840
1180.36091	0.32048
1178.43222	0.32288
1176.50352	0.32556
1174.57483	0.32818
1172.64613	0.33046
1170.71744	0.33250
1168.78875	0.33452
1166.86005	0.33651
1164.93136	0.33808
1163.00266	0.33896
1161.07397	0.33924
1159.14527	0.33927
1157.21658	0.33929
1155.28789	0.33933
1153.35919	0.33917
1151.43050	0.33849
1149.50180	0.33716
1147.57311	0.33528
1145.64441	0.33306
1143.71572	0.33066
1141.78703	0.32810
1139.85833	0.32511
1137.92964	0.32155
1136.00094	0.31801
1134.07225	0.31532
1132.14355	0.31368
1130.21486	0.31291
1128.28617	0.31316
1126.35747	0.31468
1124.42878	0.31716
1122.50008	0.31987
1120.57139	0.32220
1118.64269	0.32414
1116.71400	0.32624
1114.78531	0.32883
1112.85661	0.33167
1110.92792	0.33459
1108.99922	0.33761
1107.07053	0.34068
1105.14183	0.34364
1103.21314	0.34642
1101.28444	0.34910
1099.35575	0.35218
1097.42706	0.35644
1095.49836	0.36215
1093.56967	0.36866
1091.64097	0.37538
1089.71228	0.38209
1087.78358	0.38835
1085.85489	0.39311
1083.92620	0.39538
1081.99750	0.39488
1080.06881	0.39214
1078.14011	0.38800
1076.21142	0.38322
1074.28272	0.37853
1072.35403	0.37463
1070.42534	0.37194
1068.49664	0.37027
1066.56795	0.36934
1064.63925	0.36934
1062.71056	0.37089
1060.78186	0.37428
1058.85317	0.37960
1056.92448	0.38741
1054.99578	0.39844
1053.06709	0.41241
1051.13839	0.42774
1049.20970	0.44236
1047.28100	0.45388
1045.35231	0.45991
1043.42362	0.45926
1041.49492	0.45241
1039.56623	0.44100
1037.63753	0.42724
1035.70884	0.41311
1033.78014	0.39965
1031.85145	0.38723
1029.92276	0.37601
1027.99406	0.36598
1026.06537	0.35689
1024.13667	0.34857
1022.20798	0.34118
1020.27928	0.33512
1018.35059	0.33046
1016.42190	0.32663
1014.49320	0.32279
1012.56451	0.31861
1010.63581	0.31433
1008.70712	0.31021
1006.77842	0.30642
1004.84973	0.30327
1002.92104	0.30102
1000.99234	0.29962
999.06365	0.29899
997.13495	0.29916
995.20626	0.29990
993.27756	0.30064
991.34887	0.30096
989.42018	0.30073
987.49148	0.29998
985.56279	0.29877
983.63409	0.29727
981.70540	0.29552
979.77670	0.29352
977.84801	0.29146
975.91932	0.28961
973.99062	0.28800
972.06193	0.28648
970.13323	0.28500
968.20454	0.28365
966.27584	0.28235
964.34715	0.28085
962.41846	0.27897
960.48976	0.27685
958.56107	0.27476
956.63237	0.27288
954.70368	0.27139
952.77498	0.27052
950.84629	0.27026
948.91760	0.27026
946.98890	0.27011
945.06021	0.26966
943.13151	0.26902
941.20282	0.26852
939.27412	0.26844
937.34543	0.26874
935.41674	0.26908
933.48804	0.26913
931.55935	0.26882
929.63065	0.26832
927.70196	0.26798
925.77326	0.26812
923.84457	0.26865
921.91588	0.26910
919.98718	0.26906
918.05849	0.26874
916.12979	0.26869
914.20110	0.26909
912.27240	0.26948
910.34371	0.26943
908.41502	0.26911
906.48632	0.26889
904.55763	0.26877
902.62893	0.26867
900.70024	0.26871
898.77154	0.26901
896.84285	0.26958
894.91415	0.27047
892.98546	0.27182
891.05677	0.27372
889.12807	0.27628
887.19938	0.27977
885.27068	0.28443
883.34199	0.28993
881.41329	0.29522
879.48460	0.29888
877.55591	0.29967
875.62721	0.29716
873.69852	0.29215
871.76982	0.28603
869.84113	0.28001
867.91243	0.27506
865.98374	0.27176
864.05505	0.26963
862.12635	0.26763
860.19766	0.26547
858.26896	0.26372
856.34027	0.26278
854.41157	0.26242
852.48288	0.26205
850.55419	0.26127
848.62549	0.26019
846.69680	0.25917
844.76810	0.25850
842.83941	0.25840
840.91071	0.25869
838.98202	0.25886
837.05333	0.25871
835.12463	0.25855
833.19594	0.25863
831.26724	0.25900
829.33855	0.25966
827.40985	0.26054
825.48116	0.26142
823.55247	0.26219
821.62377	0.26278
819.69508	0.26304
817.76638	0.26308
815.83769	0.26322
813.90899	0.26331
811.98030	0.26309
810.05161	0.26294
808.12291	0.26340
806.19422	0.26406
804.26552	0.26402
802.33683	0.26323
800.40813	0.26244
798.47944	0.26210
796.55075	0.26222
794.62205	0.26296
792.69336	0.26469
790.76466	0.26724
788.83597	0.26977
786.90727	0.27166
784.97858	0.27311
783.04989	0.27467
781.12119	0.27651
779.19250	0.27830
777.26380	0.27948
775.33511	0.27970
773.40641	0.27926
771.47772	0.27907
769.54903	0.27962
767.62033	0.28040
765.69164	0.28089
763.76294	0.28133
761.83425	0.28208
759.90555	0.28326
757.97686	0.28499
756.04817	0.28700
754.11947	0.28846
752.19078	0.28916
750.26208	0.28997
748.33339	0.29165
746.40469	0.29426
744.47600	0.29759
742.54731	0.30101
740.61861	0.30350
738.68992	0.30469
736.76122	0.30529
734.83253	0.30621
732.90383	0.30777
730.97514	0.30996
729.04645	0.31284
727.11775	0.31604
725.18906	0.31848
723.26036	0.31924
721.33167	0.31886
719.40297	0.31909
717.47428	0.32049
715.54559	0.32152
713.61689	0.32072
711.68820	0.31863
709.75950	0.31700
707.83081	0.31716
705.90211	0.31921
703.97342	0.32153
702.04472	0.32203
700.11603	0.32118
698.18734	0.32140
696.25864	0.32311
694.32995	0.32466
692.40125	0.32545
690.47256	0.32612
688.54386	0.32669
686.61517	0.32606
684.68648	0.32320
682.75778	0.31939
680.82909	0.31778
678.90039	0.31944
676.97170	0.32201
675.04300	0.32324
673.11431	0.32333
671.18562	0.32340
669.25692	0.32463
667.32823	0.32713
665.39953	0.32872
663.47084	0.32877
661.54214	0.32850
659.61345	0.32894
657.68476	0.33001
655.75606	0.33033
653.82737	0.32880
651.89867	0.32667
649.96998	0.32651
648.04128	0.32786
646.11259	0.32696
644.18390	0.32282
642.25520	0.31937
640.32651	0.32027
638.39781	0.32519
636.46912	0.33174
634.54042	0.33843
632.61173	0.34388
630.68304	0.34582
628.75434	0.34374
626.82565	0.34153
624.89695	0.34328
622.96826	0.34812
621.03956	0.35221
619.11087	0.35331
617.18218	0.35083
615.25348	0.34669
613.32479	0.34436
611.39609	0.34357
609.46740	0.34188
607.53870	0.34180
605.61001	0.34656
603.68132	0.35150
601.75262	0.34929
599.82393	0.34167
597.89523	0.33696
595.96654	0.33884
594.03784	0.34432
592.10915	0.35103
590.18046	0.36127
588.25176	0.37754
586.32307	0.39482
584.39437	0.40195
582.46568	0.39601
580.53698	0.38879
578.60829	0.38878
576.67960	0.38877
574.75090	0.38134
572.82221	0.37205
570.89351	0.36788
568.96482	0.36829
567.03612	0.37076
565.10743	0.37444
563.17874	0.37815
561.25004	0.37930
559.32135	0.37211
557.39265	0.35216
555.46396	0.32785
553.53526	0.31644
551.60657	0.32212
549.67788	0.33502
547.74918	0.34984
545.82049	0.36486
543.89179	0.37087
541.96310	0.36561
540.03440	0.36010
538.10571	0.35416
536.17702	0.33603
534.24832	0.31200
532.31963	0.30255
530.39093	0.31838
528.46224	0.35654
526.53354	0.39840
524.60485	0.40739
522.67616	0.37745
520.74746	0.34118
518.81877	0.32123
516.89007	0.31440
514.96138	0.32247
513.03268	0.35264
511.10399	0.35982
509.17530	0.30658
507.24660	0.27488
505.31791	0.30140
503.38921	0.31330
501.46052	0.22931
499.53182	0.12006
