3996.25459	0.05348
3994.32589	0.05328
3992.39720	0.05278
3990.46851	0.05240
3988.53981	0.05231
3986.61112	0.05227
3984.68242	0.05216
3982.75373	0.05224
3980.82503	0.05264
3978.89634	0.05340
3976.96765	0.05456
3975.03895	0.05567
3973.11026	0.05599
3971.18156	0.05539
3969.25287	0.05443
3967.32417	0.05376
3965.39548	0.05380
3963.46679	0.05457
3961.53809	0.05541
3959.60940	0.05551
3957.68070	0.05495
3955.75201	0.05465
3953.82331	0.05506
3951.89462	0.05584
3949.96593	0.05655
3948.03723	0.05690
3946.10854	0.05671
3944.17984	0.05615
3942.25115	0.05572
3940.32245	0.05561
3938.39376	0.05558
3936.46507	0.05542
3934.53637	0.05528
3932.60768	0.05536
3930.67898	0.05561
3928.75029	0.05595
3926.82159	0.05640
3924.89290	0.05684
3922.96421	0.05701
3921.03551	0.05695
3919.10682	0.05693
3917.17812	0.05688
3915.24943	0.05644
3913.32073	0.05581
3911.39204	0.05554
3909.46334	0.05576
3907.53465	0.05598
3905.60596	0.05600
3903.67726	0.05644
3901.74857	0.05750
3899.81987	0.05822
3897.89118	0.05803
3895.96248	0.05732
3894.03379	0.05658
3892.10510	0.05617
3890.17640	0.05619
3888.24771	0.05633
3886.31901	0.05631
3884.39032	0.05630
3882.46162	0.05650
3880.53293	0.05674
3878.60424	0.05688
3876.67554	0.05716
3874.74685	0.05785
3872.81815	0.05879
3870.88946	0.05958
3868.96076	0.06009
3867.03207	0.06033
3865.10338	0.06014
3863.17468	0.05974
3861.24599	0.05970
3859.31729	0.06002
3857.38860	0.06032
3855.45990	0.06075
3853.53121	0.06157
3851.60252	0.06207
3849.67382	0.06210
3847.74513	0.06230
3845.81643	0.06275
3843.88774	0.06318
3841.95904	0.06357
3840.03035	0.06424
3838.10166	0.06521
3836.17296	0.06586
3834.24427	0.06582
3832.31557	0.06548
3830.38688	0.06566
3828.45818	0.06666
3826.52949	0.06780
3824.60080	0.06808
3822.67210	0.06737
3820.74341	0.06684
3818.81471	0.06749
3816.88602	0.06895
3814.95732	0.07060
3813.02863	0.07193
3811.09994	0.07261
3809.17124	0.07270
3807.24255	0.07267
3805.31385	0.07304
3803.38516	0.07394
3801.45646	0.07515
3799.52777	0.07631
3797.59908	0.07721
3795.67038	0.07789
3793.74169	0.07843
3791.81299	0.07891
3789.88430	0.07950
3787.95560	0.08056
3786.02691	0.08229
3784.09822	0.08415
3782.16952	0.08541
3780.24083	0.08609
3778.31213	0.08686
3776.38344	0.08800
3774.45474	0.08919
3772.52605	0.09020
3770.59736	0.09101
3768.66866	0.09181
3766.73997	0.09286
3764.81127	0.09412
3762.88258	0.09530
3760.95388	0.09640
3759.02519	0.09786
3757.09650	0.09964
3755.16780	0.10118
3753.23911	0.10245
3751.31041	0.10417
3749.38172	0.10647
3747.45302	0.10857
3745.52433	0.11018
3743.59564	0.11129
3741.66694	0.11208
3739.73825	0.11305
3737.80955	0.11477
3735.88086	0.11735
3733.95216	0.11995
3732.02347	0.12210
3730.09478	0.12454
3728.16608	0.12762
3726.23739	0.13080
3724.30869	0.13323
3722.38000	0.13503
3720.45130	0.13718
3718.52261	0.13989
3716.59392	0.14269
3714.66522	0.14563
3712.73653	0.14921
3710.80783	0.15295
3708.87914	0.15557
3706.95044	0.15753
3705.02175	0.16024
3703.09305	0.16422
3701.16436	0.16851
3699.23567	0.17179
3697.30697	0.17411
3695.37828	0.17628
3693.44958	0.17880
3691.52089	0.18202
3689.59219	0.18575
3687.66350	0.18851
3685.73481	0.18975
3683.80611	0.19064
3681.87742	0.19208
3679.94872	0.19421
3678.02003	0.19710
3676.09133	0.20096
3674.16264	0.20457
3672.23395	0.20617
3670.30525	0.20589
3668.37656	0.20486
3666.44786	0.20386
3664.51917	0.20311
3662.59047	0.20290
3660.66178	0.20339
3658.73309	0.20423
3656.80439	0.20486
3654.87570	0.20516
3652.94700	0.20529
3651.01831	0.20507
3649.08961	0.20442
3647.16092	0.20418
3645.23223	0.20482
3643.30353	0.20609
3641.37484	0.20774
3639.44614	0.20918
3637.51745	0.20981
3635.58875	0.20993
3633.66006	0.21022
3631.73137	0.21082
3629.80267	0.21177
3627.87398	0.21354
3625.94528	0.21558
3624.01659	0.21684
3622.08789	0.21712
3620.15920	0.21685
3618.23051	0.21650
3616.30181	0.21591
3614.37312	0.21478
3612.44442	0.21379
3610.51573	0.21427
3608.58703	0.21634
3606.65834	0.21835
3604.72965	0.21931
3602.80095	0.21982
3600.87226	0.22033
3598.94356	0.22038
3597.01487	0.22001
3595.08617	0.22041
3593.15748	0.22208
3591.22879	0.22366
3589.30009	0.22376
3587.37140	0.22330
3585.44270	0.22448
3583.51401	0.22688
3581.58531	0.22873
3579.65662	0.22978
3577.72793	0.23081
3575.79923	0.23199
3573.87054	0.23263
3571.94184	0.23249
3570.01315	0.23232
3568.08445	0.23338
3566.15576	0.23595
3564.22707	0.23888
3562.29837	0.24106
3560.36968	0.24202
3558.44098	0.24205
3556.51229	0.24207
3554.58359	0.24240
3552.65490	0.24302
3550.72621	0.24401
3548.79751	0.24443
3546.86882	0.24322
3544.94012	0.24199
3543.01143	0.24281
3541.08273	0.24437
3539.15404	0.24488
3537.22535	0.24502
3535.29665	0.24563
3533.36796	0.24609
3531.43926	0.24649
3529.51057	0.24769
3527.58187	0.24879
3525.65318	0.24836
3523.72449	0.24800
3521.79579	0.25028
3519.86710	0.25373
3517.93840	0.25400
3516.00971	0.25042
3514.08101	0.24709
3512.15232	0.24699
3510.22362	0.24944
3508.29493	0.25265
3506.36624	0.25491
3504.43754	0.25499
3502.50885	0.25393
3500.58015	0.25397
3498.65146	0.25523
3496.72276	0.25669
3494.79407	0.25835
3492.86538	0.26033
3490.93668	0.26132
3489.00799	0.25985
3487.07929	0.25663
3485.15060	0.25446
3483.22190	0.25588
3481.29321	0.26100
3479.36452	0.26649
3477.43582	0.26818
3475.50713	0.26614
3473.57843	0.26477
3471.64974	0.26628
3469.72104	0.26819
3467.79235	0.26874
3465.86366	0.26999
3463.93496	0.27375
3462.00627	0.27746
3460.07757	0.27669
3458.14888	0.27147
3456.22018	0.26688
3454.29149	0.26697
3452.36280	0.27121
3450.43410	0.27642
3448.50541	0.27902
3446.57671	0.27737
3444.64802	0.27390
3442.71932	0.27243
3440.79063	0.27394
3438.86194	0.27654
3436.93324	0.27768
3435.00455	0.27601
3433.07585	0.27274
3431.14716	0.27124
3429.21846	0.27408
3427.28977	0.27997
3425.36108	0.28513
3423.43238	0.28795
3421.50369	0.28888
3419.57499	0.28674
3417.64630	0.28149
3415.71760	0.27737
3413.78891	0.27743
3411.86022	0.28009
3409.93152	0.28339
3408.00283	0.28568
3406.07413	0.28360
3404.14544	0.27730
3402.21674	0.27312
3400.28805	0.27488
3398.35936	0.27882
3396.43066	0.28057
3394.50197	0.28067
3392.57327	0.28104
3390.64458	0.28133
3388.71588	0.28067
3386.78719	0.27909
3384.85850	0.27666
3382.92980	0.27359
3381.00111	0.27142
3379.07241	0.27202
3377.14372	0.27549
3375.21502	0.27980
3373.28633	0.28210
3371.35764	0.28096
3369.42894	0.27839
3367.50025	0.27764
3365.57155	0.27827
3363.64286	0.27670
3361.71416	0.27257
3359.78547	0.26973
3357.85678	0.27074
3355.92808	0.27494
3353.99939	0.28039
3352.07069	0.28494
3350.14200	0.28656
3348.21330	0.28454
3346.28461	0.28024
3344.35592	0.27605
3342.42722	0.27296
3340.49853	0.27009
3338.56983	0.26741
3336.64114	0.26631
3334.71244	0.26671
3332.78375	0.26728
3330.85506	0.26810
3328.92636	0.26962
3326.99767	0.27091
3325.06897	0.27144
3323.14028	0.27181
3321.21158	0.27174
3319.28289	0.26957
3317.35420	0.26499
3315.42550	0.26152
3313.49681	0.26291
3311.56811	0.26737
3309.63942	0.26977
3307.71072	0.26899
3305.78203	0.26817
3303.85333	0.26913
3301.92464	0.27078
3299.99595	0.27149
3298.06725	0.27143
3296.13856	0.27195
3294.20986	0.27261
3292.28117	0.27184
3290.35247	0.27087
3288.42378	0.27220
3286.49509	0.27454
3284.56639	0.27486
3282.63770	0.27345
3280.70900	0.27246
3278.78031	0.27174
3276.85161	0.26996
3274.92292	0.26764
3272.99423	0.26670
3271.06553	0.26762
3269.13684	0.26860
3267.20814	0.26775
3265.27945	0.26551
3263.35075	0.26418
3261.42206	0.26468
3259.49337	0.26515
3257.56467	0.26340
3255.63598	0.25985
3253.70728	0.25681
3251.77859	0.25543
3249.84989	0.25493
3247.92120	0.25449
3245.99251	0.25434
3244.06381	0.25522
3242.13512	0.25752
3240.20642	0.26010
3238.27773	0.26050
3236.34903	0.25827
3234.42034	0.25613
3232.49165	0.25587
3230.56295	0.25606
3228.63426	0.25506
3226.70556	0.25297
3224.77687	0.25041
3222.84817	0.24783
3220.91948	0.24630
3218.99079	0.24741
3217.06209	0.25115
3215.13340	0.25475
3213.20470	0.25548
3211.27601	0.25350
3209.34731	0.25035
3207.41862	0.24662
3205.48993	0.24255
3203.56123	0.23891
3201.63254	0.23674
3199.70384	0.23669
3197.77515	0.23831
3195.84645	0.24028
3193.91776	0.24194
3191.98907	0.24384
3190.06037	0.24589
3188.13168	0.24656
3186.20298	0.24487
3184.27429	0.24204
3182.34559	0.23968
3180.41690	0.23786
3178.48821	0.23632
3176.55951	0.23564
3174.63082	0.23603
3172.70212	0.23664
3170.77343	0.23669
3168.84473	0.23609
3166.91604	0.23484
3164.98735	0.23307
3163.05865	0.23155
3161.12996	0.23095
3159.20126	0.23062
3157.27257	0.22970
3155.34387	0.22890
3153.41518	0.22923
3151.48649	0.23010
3149.55779	0.23021
3147.62910	0.22914
3145.70040	0.22719
3143.77171	0.22503
3141.84301	0.22375
3139.91432	0.22395
3137.98563	0.22488
3136.05693	0.22529
3134.12824	0.22475
3132.19954	0.22379
3130.27085	0.22279
3128.34215	0.22152
3126.41346	0.21997
3124.48477	0.21865
3122.55607	0.21779
3120.62738	0.21709
3118.69868	0.21640
3116.76999	0.21607
3114.84129	0.21651
3112.91260	0.21755
3110.98390	0.21861
3109.05521	0.21930
3107.12652	0.21948
3105.19782	0.21907
3103.26913	0.21824
3101.34043	0.21740
3099.41174	0.21648
3097.48304	0.21519
3095.55435	0.21387
3093.62566	0.21318
3091.69696	0.21312
3089.76827	0.21342
3087.83957	0.21409
3085.91088	0.21482
3083.98218	0.21481
3082.05349	0.21395
3080.12480	0.21310
3078.19610	0.21303
3076.26741	0.21381
3074.33871	0.21487
3072.41002	0.21534
3070.48132	0.21479
3068.55263	0.21378
3066.62394	0.21306
3064.69524	0.21270
3062.76655	0.21247
3060.83785	0.21225
3058.90916	0.21185
3056.98046	0.21115
3055.05177	0.21050
3053.12308	0.21029
3051.19438	0.21035
3049.26569	0.21032
3047.33699	0.21023
3045.40830	0.21033
3043.47960	0.21059
3041.55091	0.21079
3039.62222	0.21081
3037.69352	0.21087
3035.76483	0.21132
3033.83613	0.21210
3031.90744	0.21268
3029.97874	0.21283
3028.05005	0.21291
3026.12136	0.21333
3024.19266	0.21418
3022.26397	0.21528
3020.33527	0.21635
3018.40658	0.21727
3016.47788	0.21813
3014.54919	0.21903
3012.62050	0.21994
3010.69180	0.22090
3008.76311	0.22203
3006.83441	0.22310
3004.90572	0.22362
3002.97702	0.22365
3001.04833	0.22384
2999.11964	0.22459
2997.19094	0.22571
2995.26225	0.22717
2993.33355	0.22941
2991.40486	0.23275
2989.47616	0.23701
2987.54747	0.24181
2985.61878	0.24675
2983.69008	0.25170
2981.76139	0.25694
2979.83269	0.26268
2977.90400	0.26812
2975.97530	0.27194
2974.04661	0.27376
2972.11792	0.27424
2970.18922	0.27400
2968.26053	0.27324
2966.33183	0.27212
2964.40314	0.27104
2962.47444	0.27059
2960.54575	0.27066
2958.61706	0.27026
2956.68836	0.26895
2954.75967	0.26751
2952.83097	0.26650
2950.90228	0.26597
2948.97358	0.26624
2947.04489	0.26754
2945.11620	0.26962
2943.18750	0.27246
2941.25881	0.27632
2939.33011	0.28142
2937.40142	0.28801
2935.47272	0.29594
2933.54403	0.30347
2931.61534	0.30829
2929.68664	0.30999
2927.75795	0.30981
2925.82925	0.30822
2923.90056	0.30465
2921.97186	0.29899
2920.04317	0.29198
2918.11448	0.28461
2916.18578	0.27773
2914.25709	0.27178
2912.32839	0.26659
2910.39970	0.26185
2908.47100	0.25750
2906.54231	0.25355
2904.61361	0.24977
2902.68492	0.24594
2900.75623	0.24223
2898.82753	0.23886
2896.89884	0.23572
2894.97014	0.23256
2893.04145	0.22924
2891.11275	0.22571
2889.18406	0.22208
2887.25537	0.21871
2885.32667	0.21604
2883.39798	0.21418
2881.46928	0.21277
2879.54059	0.21146
2877.61189	0.21025
2875.68320	0.20940
2873.75451	0.20900
2871.82581	0.20865
2869.89712	0.20779
2867.96842	0.20639
2866.03973	0.20508
2864.11103	0.20457
2862.18234	0.20504
2860.25365	0.20611
2858.32495	0.20719
2856.39626	0.20734
2854.46756	0.20557
2852.53887	0.20137
2850.61017	0.19485
2848.68148	0.18669
2846.75279	0.17826
2844.82409	0.17077
2842.89540	0.16448
2840.96670	0.15904
2839.03801	0.15419
2837.10931	0.14989
2835.18062	0.14614
2833.25193	0.14285
2831.32323	0.13998
2829.39454	0.13748
2827.46584	0.13517
2825.53715	0.13286
2823.60845	0.13063
2821.67976	0.12863
2819.75107	0.12678
2817.82237	0.12488
2815.89368	0.12296
2813.96498	0.12114
2812.03629	0.11941
2810.10759	0.11763
2808.17890	0.11576
2806.25021	0.11392
2804.32151	0.11219
2802.39282	0.11054
2800.46412	0.10885
2798.53543	0.10720
2796.60673	0.10569
2794.67804	0.10429
2792.74935	0.10293
2790.82065	0.10161
2788.89196	0.10026
2786.96326	0.09888
2785.03457	0.09754
2783.10587	0.09626
2781.17718	0.09500
2779.24849	0.09372
2777.31979	0.09250
2775.39110	0.09142
2773.46240	0.09052
2771.53371	0.08975
2769.60501	0.08895
2767.67632	0.08799
2765.74763	0.08697
2763.81893	0.08605
2761.89024	0.08527
2759.96154	0.08453
2758.03285	0.08377
2756.10415	0.08297
2754.17546	0.08205
2752.24677	0.08106
2750.31807	0.08011
2748.38938	0.07928
2746.46068	0.07850
2744.53199	0.07768
2742.60329	0.07685
2740.67460	0.07604
2738.74591	0.07530
2736.81721	0.07460
2734.88852	0.07387
2732.95982	0.07303
2731.03113	0.07216
2729.10243	0.07138
2727.17374	0.07065
2725.24505	0.06994
2723.31635	0.06932
2721.38766	0.06876
2719.45896	0.06809
2717.53027	0.06725
2715.60157	0.06638
2713.67288	0.06563
2711.74419	0.06500
2709.81549	0.06444
2707.88680	0.06390
2705.95810	0.06334
2704.02941	0.06275
2702.10071	0.06215
2700.17202	0.06160
2698.24332	0.06110
2696.31463	0.06062
2694.38594	0.06012
2692.45724	0.05954
2690.52855	0.05893
2688.59985	0.05838
2686.67116	0.05791
2684.74246	0.05748
2682.81377	0.05708
2680.88508	0.05669
2678.95638	0.05628
2677.02769	0.05586
2675.09899	0.05548
2673.17030	0.05508
2671.24160	0.05464
2669.31291	0.05420
2667.38422	0.05380
2665.45552	0.05346
2663.52683	0.05322
2661.59813	0.05301
2659.66944	0.05276
2657.74074	0.05247
2655.81205	0.05218
2653.88336	0.05185
2651.95466	0.05150
2650.02597	0.05125
2648.09727	0.05110
2646.16858	0.05095
2644.23988	0.05072
2642.31119	0.05046
2640.38250	0.05023
2638.45380	0.05004
2636.52511	0.04985
2634.59641	0.04966
2632.66772	0.04954
2630.73902	0.04954
2628.81033	0.04962
2626.88164	0.04969
2624.95294	0.04970
2623.02425	0.04967
2621.09555	0.04965
2619.16686	0.04957
2617.23816	0.04941
2615.30947	0.04926
2613.38078	0.04914
2611.45208	0.04906
2609.52339	0.04904
2607.59469	0.04915
2605.66600	0.04932
2603.73730	0.04945
2601.80861	0.04950
2599.87992	0.04953
2597.95122	0.04957
2596.02253	0.04960
2594.09383	0.04962
2592.16514	0.04969
2590.23644	0.04981
2588.30775	0.04996
2586.37906	0.05013
2584.45036	0.05037
2582.52167	0.05062
2580.59297	0.05082
2578.66428	0.05094
2576.73558	0.05104
2574.80689	0.05120
2572.87820	0.05141
2570.94950	0.05166
2569.02081	0.05192
2567.09211	0.05215
2565.16342	0.05236
2563.23472	0.05256
2561.30603	0.05278
2559.37734	0.05307
2557.44864	0.05341
2555.51995	0.05378
2553.59125	0.05415
2551.66256	0.05447
2549.73386	0.05472
2547.80517	0.05495
2545.87648	0.05527
2543.94778	0.05566
2542.01909	0.05604
2540.09039	0.05637
2538.16170	0.05668
2536.23300	0.05700
2534.30431	0.05733
2532.37562	0.05770
2530.44692	0.05810
2528.51823	0.05850
2526.58953	0.05883
2524.66084	0.05911
2522.73214	0.05941
2520.80345	0.05976
2518.87476	0.06012
2516.94606	0.06049
2515.01737	0.06089
2513.08867	0.06127
2511.15998	0.06156
2509.23128	0.06184
2507.30259	0.06219
2505.37389	0.06259
2503.44520	0.06295
2501.51651	0.06327
2499.58781	0.06361
2497.65912	0.06394
2495.73042	0.06419
2493.80173	0.06438
2491.87303	0.06461
2489.94434	0.06494
2488.01565	0.06536
2486.08695	0.06575
2484.15826	0.06604
2482.22956	0.06627
2480.30087	0.06654
2478.37217	0.06689
2476.44348	0.06725
2474.51479	0.06756
2472.58609	0.06782
2470.65740	0.06804
2468.72870	0.06831
2466.80001	0.06867
2464.87131	0.06910
2462.94262	0.06952
2461.01393	0.06989
2459.08523	0.07025
2457.15654	0.07065
2455.22784	0.07111
2453.29915	0.07162
2451.37045	0.07205
2449.44176	0.07238
2447.51307	0.07268
2445.58437	0.07303
2443.65568	0.07337
2441.72698	0.07372
2439.79829	0.07415
2437.86959	0.07468
2435.94090	0.07519
2434.01221	0.07565
2432.08351	0.07615
2430.15482	0.07670
2428.22612	0.07728
2426.29743	0.07785
2424.36873	0.07837
2422.44004	0.07883
2420.51135	0.07923
2418.58265	0.07966
2416.65396	0.08014
2414.72526	0.08065
2412.79657	0.08114
2410.86787	0.08158
2408.93918	0.08201
2407.01049	0.08247
2405.08179	0.08295
2403.15310	0.08343
2401.22440	0.08390
2399.29571	0.08438
2397.36701	0.08487
2395.43832	0.08535
2393.50963	0.08586
2391.58093	0.08638
2389.65224	0.08690
2387.72354	0.08746
2385.79485	0.08811
2383.86615	0.08891
2381.93746	0.08986
2380.00877	0.09102
2378.08007	0.09243
2376.15138	0.09410
2374.22268	0.09596
2372.29399	0.09791
2370.36529	0.10008
2368.43660	0.10268
2366.50791	0.10565
2364.57921	0.10835
2362.65052	0.10980
2360.72182	0.10963
2358.79313	0.10875
2356.86443	0.10800
2354.93574	0.10709
2353.00705	0.10588
2351.07835	0.10501
2349.14966	0.10485
2347.22096	0.10536
2345.29227	0.10640
2343.36357	0.10758
2341.43488	0.10853
2339.50619	0.10950
2337.57749	0.11064
2335.64880	0.11156
2333.72010	0.11194
2331.79141	0.11192
2329.86271	0.11189
2327.93402	0.11202
2326.00533	0.11215
2324.07663	0.11207
2322.14794	0.11181
2320.21924	0.11159
2318.29055	0.11151
2316.36185	0.11154
2314.43316	0.11161
2312.50447	0.11172
2310.57577	0.11183
2308.64708	0.11194
2306.71838	0.11209
2304.78969	0.11237
2302.86099	0.11282
2300.93230	0.11331
2299.00360	0.11375
2297.07491	0.11411
2295.14622	0.11443
2293.21752	0.11476
2291.28883	0.11515
2289.36013	0.11560
2287.43144	0.11605
2285.50274	0.11647
2283.57405	0.11694
2281.64536	0.11752
2279.71666	0.11823
2277.78797	0.11903
2275.85927	0.11978
2273.93058	0.12036
2272.00188	0.12080
2270.07319	0.12126
2268.14450	0.12180
2266.21580	0.12234
2264.28711	0.12290
2262.35841	0.12357
2260.42972	0.12431
2258.50102	0.12500
2256.57233	0.12557
2254.64364	0.12603
2252.71494	0.12641
2250.78625	0.12676
2248.85755	0.12710
2246.92886	0.12747
2245.00016	0.12793
2243.07147	0.12847
2241.14278	0.12903
2239.21408	0.12954
2237.28539	0.13001
2235.35669	0.13053
2233.42800	0.13111
2231.49930	0.13173
2229.57061	0.13234
2227.64192	0.13291
2225.71322	0.13341
2223.78453	0.13385
2221.85583	0.13426
2219.92714	0.13469
2217.99844	0.13518
2216.06975	0.13565
2214.14106	0.13603
2212.21236	0.13639
2210.28367	0.13683
2208.35497	0.13738
2206.42628	0.13797
2204.49758	0.13851
2202.56889	0.13894
2200.64020	0.13933
2198.71150	0.13972
2196.78281	0.14009
2194.85411	0.14043
2192.92542	0.14077
2190.99672	0.14113
2189.06803	0.14147
2187.13934	0.14180
2185.21064	0.14213
2183.28195	0.14241
2181.35325	0.14266
2179.42456	0.14297
2177.49586	0.14341
2175.56717	0.14390
2173.63848	0.14426
2171.70978	0.14445
2169.78109	0.14461
2167.85239	0.14491
2165.92370	0.14530
2163.99500	0.14565
2162.06631	0.14591
2160.13762	0.14608
2158.20892	0.14619
2156.28023	0.14626
2154.35153	0.14633
2152.42284	0.14646
2150.49414	0.14666
2148.56545	0.14684
2146.63676	0.14691
2144.70806	0.14687
2142.77937	0.14684
2140.85067	0.14687
2138.92198	0.14692
2136.99328	0.14693
2135.06459	0.14690
2133.13590	0.14689
2131.20720	0.14688
2129.27851	0.14681
2127.34981	0.14667
2125.42112	0.14653
2123.49242	0.14647
2121.56373	0.14650
2119.63504	0.14652
2117.70634	0.14643
2115.77765	0.14622
2113.84895	0.14599
2111.92026	0.14580
2109.99156	0.14564
2108.06287	0.14545
2106.13417	0.14527
2104.20548	0.14510
2102.27679	0.14489
2100.34809	0.14462
2098.41940	0.14431
2096.49070	0.14398
2094.56201	0.14362
2092.63331	0.14325
2090.70462	0.14290
2088.77593	0.14255
2086.84723	0.14222
2084.91854	0.14195
2082.98984	0.14168
2081.06115	0.14135
2079.13245	0.14094
2077.20376	0.14050
2075.27507	0.14006
2073.34637	0.13964
2071.41768	0.13917
2069.48898	0.13862
2067.56029	0.13804
2065.63159	0.13752
2063.70290	0.13707
2061.77421	0.13664
2059.84551	0.13623
2057.91682	0.13580
2055.98812	0.13528
2054.05943	0.13469
2052.13073	0.13418
2050.20204	0.13379
2048.27335	0.13337
2046.34465	0.13276
2044.41596	0.13203
2042.48726	0.13134
2040.55857	0.13074
2038.62987	0.13020
2036.70118	0.12966
2034.77249	0.12906
2032.84379	0.12842
2030.91510	0.12776
2028.98640	0.12716
2027.05771	0.12662
2025.12901	0.12609
2023.20032	0.12551
2021.27163	0.12489
2019.34293	0.12423
2017.41424	0.12353
2015.48554	0.12282
2013.55685	0.12217
2011.62815	0.12158
2009.69946	0.12104
2007.77077	0.12051
2005.84207	0.11995
2003.91338	0.11931
2001.98468	0.11863
2000.05599	0.11793
1998.12729	0.11726
1996.19860	0.11659
1994.26991	0.11585
1992.34121	0.11505
1990.41252	0.11436
1988.48382	0.11384
1986.55513	0.11335
1984.62643	0.11275
1982.69774	0.11211
1980.76905	0.11153
1978.84035	0.11101
1976.91166	0.11050
1974.98296	0.10999
1973.05427	0.10949
1971.12557	0.10896
1969.19688	0.10835
1967.26819	0.10774
1965.33949	0.10720
1963.41080	0.10676
1961.48210	0.10633
1959.55341	0.10589
1957.62471	0.10544
1955.69602	0.10501
1953.76733	0.10460
1951.83863	0.10420
1949.90994	0.10379
1947.98124	0.10339
1946.05255	0.10301
1944.12385	0.10270
1942.19516	0.10242
1940.26647	0.10217
1938.33777	0.10200
1936.40908	0.10189
1934.48038	0.10180
1932.55169	0.10163
1930.62299	0.10146
1928.69430	0.10139
1926.76561	0.10137
1924.83691	0.10121
1922.90822	0.10089
1920.97952	0.10058
1919.05083	0.10042
1917.12213	0.10027
1915.19344	0.09995
1913.26475	0.09950
1911.33605	0.09908
1909.40736	0.09879
1907.47866	0.09861
1905.54997	0.09845
1903.62127	0.09827
1901.69258	0.09812
1899.76388	0.09801
1897.83519	0.09789
1895.90650	0.09774
1893.97780	0.09762
1892.04911	0.09753
1890.12041	0.09736
1888.19172	0.09715
1886.26302	0.09701
1884.33433	0.09695
1882.40564	0.09689
1880.47694	0.09689
1878.54825	0.09706
1876.61955	0.09734
1874.69086	0.09762
1872.76216	0.09782
1870.83347	0.09796
1868.90478	0.09806
1866.97608	0.09816
1865.04739	0.09824
1863.11869	0.09831
1861.19000	0.09839
1859.26130	0.09854
1857.33261	0.09876
1855.40392	0.09901
1853.47522	0.09932
1851.54653	0.09971
1849.61783	0.10013
1847.68914	0.10046
1845.76044	0.10072
1843.83175	0.10105
1841.90306	0.10153
1839.97436	0.10202
1838.04567	0.10240
1836.11697	0.10279
1834.18828	0.10331
1832.25958	0.10389
1830.33089	0.10447
1828.40220	0.10508
1826.47350	0.10580
1824.54481	0.10658
1822.61611	0.10723
1820.68742	0.10771
1818.75872	0.10822
1816.83003	0.10888
1814.90134	0.10968
1812.97264	0.11057
1811.04395	0.11144
1809.11525	0.11230
1807.18656	0.11325
1805.25786	0.11430
1803.32917	0.11538
1801.40048	0.11644
1799.47178	0.11746
1797.54309	0.11845
1795.61439	0.11956
1793.68570	0.12089
1791.75700	0.12232
1789.82831	0.12361
1787.89962	0.12482
1785.97092	0.12620
1784.04223	0.12776
1782.11353	0.12927
1780.18484	0.13074
1778.25614	0.13232
1776.32745	0.13404
1774.39876	0.13605
1772.47006	0.13848
1770.54137	0.14111
1768.61267	0.14379
1766.68398	0.14672
1764.75528	0.15018
1762.82659	0.15457
1760.89790	0.16009
1758.96920	0.16657
1757.04051	0.17407
1755.11181	0.18249
1753.18312	0.19144
1751.25442	0.20085
1749.32573	0.20995
1747.39704	0.21659
1745.46834	0.22037
1743.53965	0.22233
1741.61095	0.22287
1739.68226	0.22258
1737.75356	0.22218
1735.82487	0.22151
1733.89618	0.21997
1731.96748	0.21801
1730.03879	0.21669
1728.11009	0.21608
1726.18140	0.21576
1724.25270	0.21556
1722.32401	0.21555
1720.39532	0.21563
1718.46662	0.21529
1716.53793	0.21391
1714.60923	0.21222
1712.68054	0.21131
1710.75184	0.21109
1708.82315	0.21104
1706.89446	0.21090
1704.96576	0.21093
1703.03707	0.21150
1701.10837	0.21255
1699.17968	0.21364
1697.25098	0.21457
1695.32229	0.21546
1693.39359	0.21627
1691.46490	0.21702
1689.53621	0.21787
1687.60751	0.21881
1685.67882	0.21939
1683.75012	0.21909
1681.82143	0.21861
1679.89273	0.21905
1677.96404	0.22014
1676.03535	0.22122
1674.10665	0.22246
1672.17796	0.22458
1670.24926	0.22705
1668.32057	0.22836
1666.39187	0.22842
1664.46318	0.22829
1662.53449	0.22892
1660.60579	0.23062
1658.67710	0.23274
1656.74840	0.23424
1654.81971	0.23391
1652.89101	0.23177
1650.96232	0.23084
1649.03363	0.23080
1647.10493	0.22914
1645.17624	0.22632
1643.24754	0.22445
1641.31885	0.22387
1639.39015	0.22409
1637.46146	0.22436
1635.53277	0.22352
1633.60407	0.22180
1631.67538	0.22031
1629.74668	0.21921
1627.81799	0.21832
1625.88929	0.21750
1623.96060	0.21673
1622.03191	0.21605
1620.10321	0.21487
1618.17452	0.21218
1616.24582	0.20819
1614.31713	0.20459
1612.38843	0.20172
1610.45974	0.19889
1608.53105	0.19619
1606.60235	0.19419
1604.67366	0.19280
1602.74496	0.19159
1600.81627	0.19052
1598.88757	0.18987
1596.95888	0.18963
1595.03019	0.18937
1593.10149	0.18880
1591.17280	0.18808
1589.24410	0.18755
1587.31541	0.18735
1585.38671	0.18743
1583.45802	0.18765
1581.52933	0.18794
1579.60063	0.18835
1577.67194	0.18905
1575.74324	0.19011
1573.81455	0.19150
1571.88585	0.19305
1569.95716	0.19432
1568.02847	0.19488
1566.09977	0.19526
1564.17108	0.19606
1562.24238	0.19702
1560.31369	0.19784
1558.38499	0.19903
1556.45630	0.20064
1554.52761	0.20187
1552.59891	0.20292
1550.67022	0.20432
1548.74152	0.20603
1546.81283	0.20718
1544.88413	0.20687
1542.95544	0.20499
1541.02675	0.20246
1539.09805	0.20078
1537.16936	0.19997
1535.24066	0.19927
1533.31197	0.19858
1531.38327	0.19810
1529.45458	0.19754
1527.52589	0.19654
1525.59719	0.19533
1523.66850	0.19430
1521.73980	0.19346
1519.81111	0.19298
1517.88241	0.19297
1515.95372	0.19252
1514.02503	0.19101
1512.09633	0.18898
1510.16764	0.18731
1508.23894	0.18646
1506.31025	0.18608
1504.38155	0.18576
1502.45286	0.18575
1500.52416	0.18610
1498.59547	0.18644
1496.66678	0.18655
1494.73808	0.18676
1492.80939	0.18732
1490.88069	0.18811
1488.95200	0.18897
1487.02330	0.18992
1485.09461	0.19095
1483.16592	0.19189
1481.23722	0.19271
1479.30853	0.19358
1477.37983	0.19461
1475.45114	0.19610
1473.52244	0.19921
1471.59375	0.20443
1469.66506	0.20957
1467.73636	0.21312
1465.80767	0.21563
1463.87897	0.21783
1461.95028	0.21972
1460.02158	0.22108
1458.09289	0.22182
1456.16420	0.22183
1454.23550	0.22130
1452.30681	0.22056
1450.37811	0.21982
1448.44942	0.21910
1446.52072	0.21813
1444.59203	0.21666
1442.66334	0.21487
1440.73464	0.21313
1438.80595	0.21170
1436.87725	0.21077
1434.94856	0.21036
1433.01986	0.21013
1431.09117	0.20974
1429.16248	0.20921
1427.23378	0.20893
1425.30509	0.20926
1423.37639	0.21037
1421.44770	0.21202
1419.51900	0.21333
1417.59031	0.21358
1415.66162	0.21335
1413.73292	0.21322
1411.80423	0.21299
1409.87553	0.21250
1407.94684	0.21190
1406.01814	0.21119
1404.08945	0.21028
1402.16076	0.20937
1400.23206	0.20881
1398.30337	0.20864
1396.37467	0.20882
1394.44598	0.20923
1392.51728	0.20958
1390.58859	0.20985
1388.65990	0.21060
1386.73120	0.21232
1384.80251	0.21465
1382.87381	0.21676
1380.94512	0.21805
1379.01642	0.21810
1377.08773	0.21669
1375.15904	0.21380
1373.23034	0.20993
1371.30165	0.20605
1369.37295	0.20275
1367.44426	0.20026
1365.51556	0.19869
1363.58687	0.19793
1361.65818	0.19760
1359.72948	0.19728
1357.80079	0.19681
1355.87209	0.19641
1353.94340	0.19626
1352.01470	0.19622
1350.08601	0.19608
1348.15732	0.19606
1346.22862	0.19660
1344.29993	0.19759
1342.37123	0.19847
1340.44254	0.19887
1338.51384	0.19900
1336.58515	0.19927
1334.65646	0.19978
1332.72776	0.20034
1330.79907	0.20081
1328.87037	0.20128
1326.94168	0.20185
1325.01298	0.20235
1323.08429	0.20257
1321.15560	0.20246
1319.22690	0.20215
1317.29821	0.20173
1315.36951	0.20125
1313.44082	0.20068
1311.51212	0.20002
1309.58343	0.19943
1307.65474	0.19902
1305.72604	0.19873
1303.79735	0.19831
1301.86865	0.19773
1299.93996	0.19712
1298.01126	0.19659
1296.08257	0.19610
1294.15387	0.19565
1292.22518	0.19534
1290.29649	0.19533
1288.36779	0.19567
1286.43910	0.19620
1284.51040	0.19687
1282.58171	0.19782
1280.65301	0.19903
1278.72432	0.20014
1276.79563	0.20080
1274.86693	0.20098
1272.93824	0.20084
1271.00954	0.20047
1269.08085	0.19986
1267.15215	0.19907
1265.22346	0.19818
1263.29477	0.19720
1261.36607	0.19618
1259.43738	0.19536
1257.50868	0.19495
1255.57999	0.19494
1253.65129	0.19517
1251.72260	0.19552
1249.79391	0.19578
1247.86521	0.19580
1245.93652	0.19568
1244.00782	0.19554
1242.07913	0.19539
1240.15043	0.19520
1238.22174	0.19500
1236.29305	0.19478
1234.36435	0.19448
1232.43566	0.19410
1230.50696	0.19366
1228.57827	0.19320
1226.64957	0.19279
1224.72088	0.19243
1222.79219	0.19210
1220.86349	0.19170
1218.93480	0.19115
1217.00610	0.19068
1215.07741	0.19058
1213.14871	0.19077
1211.22002	0.19095
1209.29133	0.19092
1207.36263	0.19072
1205.43394	0.19053
1203.50524	0.19049
1201.57655	0.19063
1199.64785	0.19095
1197.71916	0.19134
1195.79047	0.19164
1193.86177	0.19184
1191.93308	0.19215
1190.00438	0.19263
1188.07569	0.19313
1186.14699	0.19361
1184.21830	0.19417
1182.28961	0.19496
1180.36091	0.19597
1178.43222	0.19709
1176.50352	0.19808
1174.57483	0.19875
1172.64613	0.19888
1170.71744	0.19846
1168.78875	0.19788
1166.86005	0.19767
1164.93136	0.19797
1163.00266	0.19838
1161.07397	0.19831
1159.14527	0.19764
1157.21658	0.19692
1155.28789	0.19657
1153.35919	0.19628
1151.43050	0.19558
1149.50180	0.19455
1147.57311	0.19353
1145.64441	0.19270
1143.71572	0.19204
1141.78703	0.19147
1139.85833	0.19083
1137.92964	0.18997
1136.00094	0.18872
1134.07225	0.18726
1132.14355	0.18621
1130.21486	0.18602
1128.28617	0.18646
1126.35747	0.18699
1124.42878	0.18735
1122.50008	0.18771
1120.57139	0.18835
1118.64269	0.18919
1116.71400	0.18990
1114.78531	0.19041
1112.85661	0.19112
1110.92792	0.19240
1108.99922	0.19445
1107.07053	0.19748
1105.14183	0.20171
1103.21314	0.20719
1101.28444	0.21396
1099.35575	0.22235
1097.42706	0.23263
1095.49836	0.24438
1093.56967	0.25636
1091.64097	0.26690
1089.71228	0.27426
1087.78358	0.27727
1085.85489	0.27598
1083.92620	0.27139
1081.99750	0.26466
1080.06881	0.25690
1078.14011	0.24921
1076.21142	0.24240
1074.28272	0.23663
1072.35403	0.23172
1070.42534	0.22777
1068.49664	0.22504
1066.56795	0.22369
1064.63925	0.22406
1062.71056	0.22714
1060.78186	0.23471
1058.85317	0.24847
1056.92448	0.26892
1054.99578	0.29488
1053.06709	0.32394
1051.13839	0.35317
1049.20970	0.37907
1047.28100	0.39724
1045.35231	0.40313
1043.42362	0.39458
1041.49492	0.37342
1039.56623	0.34483
1037.63753	0.31477
1035.70884	0.28764
1033.78014	0.26550
1031.85145	0.24848
1029.92276	0.23555
1027.99406	0.22553
1026.06537	0.21751
1024.13667	0.21084
1022.20798	0.20522
1020.27928	0.20071
1018.35059	0.19732
1016.42190	0.19477
1014.49320	0.19278
1012.56451	0.19126
1010.63581	0.18999
1008.70712	0.18864
1006.77842	0.18717
1004.84973	0.18585
1002.92104	0.18489
1000.99234	0.18426
999.06365	0.18374
997.13495	0.18323
995.20626	0.18292
993.27756	0.18317
991.34887	0.18388
989.42018	0.18450
987.49148	0.18465
985.56279	0.18452
983.63409	0.18446
981.70540	0.18453
979.77670	0.18469
977.84801	0.18498
975.91932	0.18543
973.99062	0.18581
972.06193	0.18599
970.13323	0.18612
968.20454	0.18637
966.27584	0.18665
964.34715	0.18674
962.41846	0.18664
960.48976	0.18658
958.56107	0.18669
956.63237	0.18691
954.70368	0.18704
952.77498	0.18705
950.84629	0.18699
948.91760	0.18694
946.98890	0.18697
945.06021	0.18712
943.13151	0.18734
941.20282	0.18767
939.27412	0.18806
937.34543	0.18837
935.41674	0.18844
933.48804	0.18829
931.55935	0.18812
929.63065	0.18816
927.70196	0.18847
925.77326	0.18900
923.84457	0.18976
921.91588	0.19062
919.98718	0.19139
918.05849	0.19204
916.12979	0.19262
914.20110	0.19307
912.27240	0.19354
910.34371	0.19434
908.41502	0.19544
906.48632	0.19646
904.55763	0.19728
902.62893	0.19827
900.70024	0.19975
898.77154	0.20180
896.84285	0.20434
894.91415	0.20754
892.98546	0.21202
891.05677	0.21839
889.12807	0.22692
887.19938	0.23777
885.27068	0.25092
883.34199	0.26507
881.41329	0.27704
879.48460	0.28280
877.55591	0.27996
875.62721	0.26957
873.69852	0.25567
871.76982	0.24258
869.84113	0.23251
867.91243	0.22531
865.98374	0.21990
864.05505	0.21570
862.12635	0.21276
860.19766	0.21109
858.26896	0.21021
856.34027	0.20945
854.41157	0.20859
852.48288	0.20793
850.55419	0.20778
848.62549	0.20804
846.69680	0.20846
844.76810	0.20894
842.83941	0.20951
840.91071	0.21014
838.98202	0.21080
837.05333	0.21149
835.12463	0.21207
833.19594	0.21253
831.26724	0.21313
829.33855	0.21398
827.40985	0.21479
825.48116	0.21531
823.55247	0.21575
821.62377	0.21648
819.69508	0.21755
817.76638	0.21862
815.83769	0.21951
813.90899	0.22047
811.98030	0.22189
810.05161	0.22370
808.12291	0.22534
806.19422	0.22639
804.26552	0.22702
802.33683	0.22754
800.40813	0.22790
798.47944	0.22792
796.55075	0.22775
794.62205	0.22772
792.69336	0.22789
790.76466	0.22805
788.83597	0.22819
786.90727	0.22868
784.97858	0.22979
783.04989	0.23113
781.12119	0.23201
779.19250	0.23239
777.26380	0.23275
775.33511	0.23329
773.40641	0.23376
771.47772	0.23421
769.54903	0.23497
767.62033	0.23592
765.69164	0.23651
763.76294	0.23656
761.83425	0.23653
759.90555	0.23669
757.97686	0.23687
756.04817	0.23719
754.11947	0.23822
752.19078	0.24009
750.26208	0.24239
748.33339	0.24449
746.40469	0.24580
744.47600	0.24623
742.54731	0.24627
740.61861	0.24619
738.68992	0.24592
736.76122	0.24601
734.83253	0.24718
732.90383	0.24907
730.97514	0.25054
729.04645	0.25115
727.11775	0.25146
725.18906	0.25186
723.26036	0.25215
721.33167	0.25220
719.40297	0.25226
717.47428	0.25243
715.54559	0.25278
713.61689	0.25367
711.68820	0.25530
709.75950	0.25694
707.83081	0.25736
705.90211	0.25621
703.97342	0.25473
702.04472	0.25452
700.11603	0.25579
698.18734	0.25733
696.25864	0.25795
694.32995	0.25744
692.40125	0.25645
690.47256	0.25594
688.54386	0.25648
686.61517	0.25751
684.68648	0.25789
682.75778	0.25743
680.82909	0.25755
678.90039	0.25942
676.97170	0.26215
675.04300	0.26382
673.11431	0.26350
671.18562	0.26147
669.25692	0.25943
667.32823	0.25975
665.39953	0.26052
663.47084	0.25946
661.54214	0.25812
659.61345	0.25869
657.68476	0.26024
655.75606	0.26013
653.82737	0.25933
651.89867	0.26152
649.96998	0.26686
648.04128	0.27076
646.11259	0.27020
644.18390	0.26739
642.25520	0.26562
640.32651	0.26505
638.39781	0.26420
636.46912	0.26285
634.54042	0.26195
632.61173	0.26159
630.68304	0.26094
628.75434	0.26000
626.82565	0.26036
624.89695	0.26335
622.96826	0.26762
621.03956	0.26995
619.11087	0.26949
617.18218	0.26887
615.25348	0.26963
613.32479	0.27045
611.39609	0.27111
609.46740	0.27262
607.53870	0.27419
605.61001	0.27516
603.68132	0.27693
601.75262	0.27946
599.82393	0.28032
597.89523	0.27888
595.96654	0.27728
594.03784	0.27672
592.10915	0.27563
590.18046	0.27205
588.25176	0.26685
586.32307	0.26315
584.39437	0.26275
582.46568	0.26463
580.53698	0.26698
578.60829	0.26936
576.67960	0.27319
574.75090	0.27880
572.82221	0.28336
570.89351	0.28403
568.96482	0.28131
567.03612	0.27678
565.10743	0.27180
563.17874	0.26927
561.25004	0.27097
559.32135	0.27305
557.39265	0.26927
555.46396	0.26032
553.53526	0.25490
551.60657	0.25938
549.67788	0.26953
547.74918	0.27592
545.82049	0.27638
543.89179	0.27741
541.96310	0.28253
540.03440	0.28501
538.10571	0.27816
536.17702	0.26775
534.24832	0.26396
532.31963	0.26658
530.39093	0.26875
528.46224	0.26815
526.53354	0.26722
524.60485	0.26892
522.67616	0.27613
520.74746	0.28804
518.81877	0.29544
516.89007	0.29176
514.96138	0.29111
513.03268	0.30957
511.10399	0.33251
509.17530	0.31820
507.24660	0.25059
505.31791	0.16142
503.38921	0.10082
501.46052	0.09968
499.53182	0.11700
