3996.25459	0.07221
3994.32589	0.07264
3992.39720	0.07245
3990.46851	0.07227
3988.53981	0.07253
3986.61112	0.07306
3984.68242	0.07350
3982.75373	0.07391
3980.82503	0.07456
3978.89634	0.07521
3976.96765	0.07540
3975.03895	0.07518
3973.11026	0.07507
3971.18156	0.07526
3969.25287	0.07546
3967.32417	0.07539
3965.39548	0.07513
3963.46679	0.07486
3961.53809	0.07468
3959.60940	0.07466
3957.68070	0.07491
3955.75201	0.07537
3953.82331	0.07585
3951.89462	0.07627
3949.96593	0.07672
3948.03723	0.07711
3946.10854	0.07716
3944.17984	0.07684
3942.25115	0.07657
3940.32245	0.07666
3938.39376	0.07705
3936.46507	0.07742
3934.53637	0.07736
3932.60768	0.07655
3930.67898	0.07549
3928.75029	0.07519
3926.82159	0.07580
3924.89290	0.07655
3922.96421	0.07665
3921.03551	0.07614
3919.10682	0.07565
3917.17812	0.07568
3915.24943	0.07606
3913.32073	0.07630
3911.39204	0.07638
3909.46334	0.07662
3907.53465	0.07710
3905.60596	0.07755
3903.67726	0.07780
3901.74857	0.07795
3899.81987	0.07807
3897.89118	0.07810
3895.96248	0.07818
3894.03379	0.07840
3892.10510	0.07855
3890.17640	0.07848
3888.24771	0.07840
3886.31901	0.07857
3884.39032	0.07896
3882.46162	0.07931
3880.53293	0.07937
3878.60424	0.07914
3876.67554	0.07893
3874.74685	0.07902
3872.81815	0.07951
3870.88946	0.08043
3868.96076	0.08161
3867.03207	0.08256
3865.10338	0.08269
3863.17468	0.08199
3861.24599	0.08124
3859.31729	0.08097
3857.38860	0.08101
3855.45990	0.08117
3853.53121	0.08185
3851.60252	0.08303
3849.67382	0.08381
3847.74513	0.08417
3845.81643	0.08477
3843.88774	0.08603
3841.95904	0.08737
3840.03035	0.08762
3838.10166	0.08684
3836.17296	0.08651
3834.24427	0.08756
3832.31557	0.08966
3830.38688	0.09188
3828.45818	0.09333
3826.52949	0.09375
3824.60080	0.09345
3822.67210	0.09285
3820.74341	0.09256
3818.81471	0.09294
3816.88602	0.09383
3814.95732	0.09501
3813.02863	0.09629
3811.09994	0.09754
3809.17124	0.09901
3807.24255	0.10085
3805.31385	0.10251
3803.38516	0.10341
3801.45646	0.10386
3799.52777	0.10470
3797.59908	0.10624
3795.67038	0.10785
3793.74169	0.10886
3791.81299	0.10938
3789.88430	0.11011
3787.95560	0.11159
3786.02691	0.11365
3784.09822	0.11550
3782.16952	0.11674
3780.24083	0.11794
3778.31213	0.11951
3776.38344	0.12099
3774.45474	0.12198
3772.52605	0.12282
3770.59736	0.12407
3768.66866	0.12575
3766.73997	0.12747
3764.81127	0.12904
3762.88258	0.13059
3760.95388	0.13238
3759.02519	0.13452
3757.09650	0.13672
3755.16780	0.13862
3753.23911	0.14031
3751.31041	0.14197
3749.38172	0.14360
3747.45302	0.14558
3745.52433	0.14863
3743.59564	0.15266
3741.66694	0.15644
3739.73825	0.15928
3737.80955	0.16131
3735.88086	0.16289
3733.95216	0.16473
3732.02347	0.16728
3730.09478	0.17033
3728.16608	0.17364
3726.23739	0.17725
3724.30869	0.18103
3722.38000	0.18455
3720.45130	0.18792
3718.52261	0.19164
3716.59392	0.19576
3714.66522	0.19998
3712.73653	0.20443
3710.80783	0.20962
3708.87914	0.21527
3706.95044	0.22060
3705.02175	0.22565
3703.09305	0.23111
3701.16436	0.23709
3699.23567	0.24302
3697.30697	0.24873
3695.37828	0.25439
3693.44958	0.25966
3691.52089	0.26407
3689.59219	0.26769
3687.66350	0.27089
3685.73481	0.27390
3683.80611	0.27701
3681.87742	0.28052
3679.94872	0.28444
3678.02003	0.28833
3676.09133	0.29145
3674.16264	0.29384
3672.23395	0.29637
3670.30525	0.29862
3668.37656	0.29963
3666.44786	0.30032
3664.51917	0.30211
3662.59047	0.30499
3660.66178	0.30777
3658.73309	0.30932
3656.80439	0.30926
3654.87570	0.30850
3652.94700	0.30846
3651.01831	0.30941
3649.08961	0.31003
3647.16092	0.30997
3645.23223	0.31088
3643.30353	0.31252
3641.37484	0.31354
3639.44614	0.31369
3637.51745	0.31373
3635.58875	0.31405
3633.66006	0.31459
3631.73137	0.31548
3629.80267	0.31658
3627.87398	0.31731
3625.94528	0.31773
3624.01659	0.31842
3622.08789	0.32005
3620.15920	0.32284
3618.23051	0.32497
3616.30181	0.32445
3614.37312	0.32257
3612.44442	0.32186
3610.51573	0.32313
3608.58703	0.32548
3606.65834	0.32764
3604.72965	0.32876
3602.80095	0.32836
3600.87226	0.32644
3598.94356	0.32439
3597.01487	0.32472
3595.08617	0.32779
3593.15748	0.33064
3591.22879	0.33124
3589.30009	0.33084
3587.37140	0.33146
3585.44270	0.33309
3583.51401	0.33457
3581.58531	0.33592
3579.65662	0.33803
3577.72793	0.34090
3575.79923	0.34282
3573.87054	0.34269
3571.94184	0.34189
3570.01315	0.34261
3568.08445	0.34558
3566.15576	0.34912
3564.22707	0.35064
3562.29837	0.35010
3560.36968	0.34974
3558.44098	0.35121
3556.51229	0.35389
3554.58359	0.35662
3552.65490	0.35935
3550.72621	0.36113
3548.79751	0.35979
3546.86882	0.35616
3544.94012	0.35451
3543.01143	0.35668
3541.08273	0.36021
3539.15404	0.36305
3537.22535	0.36530
3535.29665	0.36744
3533.36796	0.36961
3531.43926	0.37192
3529.51057	0.37386
3527.58187	0.37420
3525.65318	0.37304
3523.72449	0.37235
3521.79579	0.37260
3519.86710	0.37196
3517.93840	0.36954
3516.00971	0.36673
3514.08101	0.36552
3512.15232	0.36687
3510.22362	0.36941
3508.29493	0.37072
3506.36624	0.37089
3504.43754	0.37209
3502.50885	0.37479
3500.58015	0.37818
3498.65146	0.38222
3496.72276	0.38645
3494.79407	0.38838
3492.86538	0.38556
3490.93668	0.37872
3489.00799	0.37255
3487.07929	0.37223
3485.15060	0.37768
3483.22190	0.38309
3481.29321	0.38396
3479.36452	0.38227
3477.43582	0.38250
3475.50713	0.38463
3473.57843	0.38525
3471.64974	0.38450
3469.72104	0.38623
3467.79235	0.39084
3465.86366	0.39473
3463.93496	0.39658
3462.00627	0.39860
3460.07757	0.40079
3458.14888	0.39994
3456.22018	0.39623
3454.29149	0.39505
3452.36280	0.39943
3450.43410	0.40648
3448.50541	0.41206
3446.57671	0.41302
3444.64802	0.40684
3442.71932	0.39631
3440.79063	0.38930
3438.86194	0.38942
3436.93324	0.39249
3435.00455	0.39479
3433.07585	0.39741
3431.14716	0.40079
3429.21846	0.40247
3427.28977	0.40310
3425.36108	0.40677
3423.43238	0.41233
3421.50369	0.41235
3419.57499	0.40427
3417.64630	0.39492
3415.71760	0.39211
3413.78891	0.39776
3411.86022	0.40812
3409.93152	0.41724
3408.00283	0.42175
3406.07413	0.42234
3404.14544	0.42014
3402.21674	0.41443
3400.28805	0.40617
3398.35936	0.39964
3396.43066	0.39771
3394.50197	0.39826
3392.57327	0.39852
3390.64458	0.40018
3388.71588	0.40594
3386.78719	0.41332
3384.85850	0.41614
3382.92980	0.41295
3381.00111	0.40957
3379.07241	0.41100
3377.14372	0.41561
3375.21502	0.41869
3373.28633	0.41853
3371.35764	0.41678
3369.42894	0.41574
3367.50025	0.41625
3365.57155	0.41702
3363.64286	0.41530
3361.71416	0.41019
3359.78547	0.40450
3357.85678	0.40097
3355.92808	0.39862
3353.99939	0.39688
3352.07069	0.39865
3350.14200	0.40389
3348.21330	0.40634
3346.28461	0.40276
3344.35592	0.39790
3342.42722	0.39628
3340.49853	0.39684
3338.56983	0.39834
3336.64114	0.40325
3334.71244	0.41239
3332.78375	0.41968
3330.85506	0.41788
3328.92636	0.40845
3326.99767	0.40043
3325.06897	0.40037
3323.14028	0.40642
3321.21158	0.41121
3319.28289	0.41058
3317.35420	0.40765
3315.42550	0.40669
3313.49681	0.40672
3311.56811	0.40452
3309.63942	0.40087
3307.71072	0.40019
3305.78203	0.40425
3303.85333	0.40852
3301.92464	0.40704
3299.99595	0.40131
3298.06725	0.39865
3296.13856	0.40190
3294.20986	0.40613
3292.28117	0.40700
3290.35247	0.40637
3288.42378	0.40676
3286.49509	0.40639
3284.56639	0.40356
3282.63770	0.40068
3280.70900	0.40007
3278.78031	0.40018
3276.85161	0.39894
3274.92292	0.39681
3272.99423	0.39464
3271.06553	0.39207
3269.13684	0.39013
3267.20814	0.39091
3265.27945	0.39387
3263.35075	0.39597
3261.42206	0.39592
3259.49337	0.39524
3257.56467	0.39511
3255.63598	0.39367
3253.70728	0.38817
3251.77859	0.38028
3249.84989	0.37564
3247.92120	0.37616
3245.99251	0.37770
3244.06381	0.37719
3242.13512	0.37596
3240.20642	0.37506
3238.27773	0.37412
3236.34903	0.37449
3234.42034	0.37739
3232.49165	0.38017
3230.56295	0.37899
3228.63426	0.37385
3226.70556	0.36828
3224.77687	0.36559
3222.84817	0.36679
3220.91948	0.37032
3218.99079	0.37316
3217.06209	0.37333
3215.13340	0.37149
3213.20470	0.36905
3211.27601	0.36613
3209.34731	0.36236
3207.41862	0.35862
3205.48993	0.35625
3203.56123	0.35581
3201.63254	0.35717
3199.70384	0.35959
3197.77515	0.36149
3195.84645	0.36169
3193.91776	0.36030
3191.98907	0.35789
3190.06037	0.35508
3188.13168	0.35308
3186.20298	0.35319
3184.27429	0.35535
3182.34559	0.35770
3180.41690	0.35823
3178.48821	0.35693
3176.55951	0.35530
3174.63082	0.35408
3172.70212	0.35275
3170.77343	0.35095
3168.84473	0.34915
3166.91604	0.34810
3164.98735	0.34795
3163.05865	0.34793
3161.12996	0.34719
3159.20126	0.34577
3157.27257	0.34447
3155.34387	0.34397
3153.41518	0.34402
3151.48649	0.34334
3149.55779	0.34115
3147.62910	0.33843
3145.70040	0.33702
3143.77171	0.33731
3141.84301	0.33793
3139.91432	0.33761
3137.98563	0.33642
3136.05693	0.33502
3134.12824	0.33386
3132.19954	0.33308
3130.27085	0.33250
3128.34215	0.33182
3126.41346	0.33125
3124.48477	0.33103
3122.55607	0.33047
3120.62738	0.32884
3118.69868	0.32684
3116.76999	0.32569
3114.84129	0.32568
3112.91260	0.32627
3110.98390	0.32704
3109.05521	0.32785
3107.12652	0.32838
3105.19782	0.32794
3103.26913	0.32607
3101.34043	0.32346
3099.41174	0.32169
3097.48304	0.32118
3095.55435	0.32080
3093.62566	0.32012
3091.69696	0.32009
3089.76827	0.32099
3087.83957	0.32185
3085.91088	0.32210
3083.98218	0.32196
3082.05349	0.32172
3080.12480	0.32182
3078.19610	0.32251
3076.26741	0.32299
3074.33871	0.32228
3072.41002	0.32064
3070.48132	0.31917
3068.55263	0.31825
3066.62394	0.31778
3064.69524	0.31803
3062.76655	0.31907
3060.83785	0.32016
3058.90916	0.32061
3056.98046	0.32026
3055.05177	0.31906
3053.12308	0.31735
3051.19438	0.31579
3049.26569	0.31460
3047.33699	0.31361
3045.40830	0.31310
3043.47960	0.31344
3041.55091	0.31428
3039.62222	0.31498
3037.69352	0.31515
3035.76483	0.31463
3033.83613	0.31366
3031.90744	0.31302
3029.97874	0.31337
3028.05005	0.31437
3026.12136	0.31515
3024.19266	0.31542
3022.26397	0.31573
3020.33527	0.31667
3018.40658	0.31832
3016.47788	0.32013
3014.54919	0.32143
3012.62050	0.32207
3010.69180	0.32244
3008.76311	0.32291
3006.83441	0.32352
3004.90572	0.32419
3002.97702	0.32476
3001.04833	0.32518
2999.11964	0.32564
2997.19094	0.32626
2995.26225	0.32712
2993.33355	0.32864
2991.40486	0.33143
2989.47616	0.33565
2987.54747	0.34075
2985.61878	0.34613
2983.69008	0.35176
2981.76139	0.35798
2979.83269	0.36456
2977.90400	0.37044
2975.97530	0.37467
2974.04661	0.37709
2972.11792	0.37820
2970.18922	0.37908
2968.26053	0.38105
2966.33183	0.38489
2964.40314	0.39004
2962.47444	0.39500
2960.54575	0.39848
2958.61706	0.39985
2956.68836	0.39900
2954.75967	0.39675
2952.83097	0.39513
2950.90228	0.39577
2948.97358	0.39846
2947.04489	0.40221
2945.11620	0.40704
2943.18750	0.41352
2941.25881	0.42182
2939.33011	0.43188
2937.40142	0.44358
2935.47272	0.45580
2933.54403	0.46621
2931.61534	0.47278
2929.68664	0.47568
2927.75795	0.47700
2925.82925	0.47707
2923.90056	0.47264
2921.97186	0.46161
2920.04317	0.44617
2918.11448	0.42929
2916.18578	0.41266
2914.25709	0.39795
2912.32839	0.38652
2910.39970	0.37808
2908.47100	0.37079
2906.54231	0.36281
2904.61361	0.35395
2902.68492	0.34538
2900.75623	0.33796
2898.82753	0.33154
2896.89884	0.32545
2894.97014	0.31927
2893.04145	0.31315
2891.11275	0.30762
2889.18406	0.30283
2887.25537	0.29850
2885.32667	0.29456
2883.39798	0.29122
2881.46928	0.28856
2879.54059	0.28650
2877.61189	0.28516
2875.68320	0.28462
2873.75451	0.28442
2871.82581	0.28383
2869.89712	0.28255
2867.96842	0.28117
2866.03973	0.28078
2864.11103	0.28241
2862.18234	0.28624
2860.25365	0.29109
2858.32495	0.29497
2856.39626	0.29611
2854.46756	0.29320
2852.53887	0.28528
2850.61017	0.27289
2848.68148	0.25865
2846.75279	0.24515
2844.82409	0.23329
2842.89540	0.22300
2840.96670	0.21424
2839.03801	0.20704
2837.10931	0.20132
2835.18062	0.19676
2833.25193	0.19281
2831.32323	0.18898
2829.39454	0.18516
2827.46584	0.18151
2825.53715	0.17817
2823.60845	0.17512
2821.67976	0.17227
2819.75107	0.16963
2817.82237	0.16719
2815.89368	0.16478
2813.96498	0.16217
2812.03629	0.15948
2810.10759	0.15704
2808.17890	0.15498
2806.25021	0.15314
2804.32151	0.15127
2802.39282	0.14913
2800.46412	0.14675
2798.53543	0.14437
2796.60673	0.14220
2794.67804	0.14017
2792.74935	0.13816
2790.82065	0.13620
2788.89196	0.13434
2786.96326	0.13257
2785.03457	0.13084
2783.10587	0.12918
2781.17718	0.12754
2779.24849	0.12597
2777.31979	0.12457
2775.39110	0.12335
2773.46240	0.12211
2771.53371	0.12079
2769.60501	0.11943
2767.67632	0.11809
2765.74763	0.11681
2763.81893	0.11561
2761.89024	0.11441
2759.96154	0.11316
2758.03285	0.11188
2756.10415	0.11065
2754.17546	0.10952
2752.24677	0.10846
2750.31807	0.10741
2748.38938	0.10639
2746.46068	0.10541
2744.53199	0.10442
2742.60329	0.10332
2740.67460	0.10214
2738.74591	0.10102
2736.81721	0.10007
2734.88852	0.09920
2732.95982	0.09828
2731.03113	0.09721
2729.10243	0.09605
2727.17374	0.09495
2725.24505	0.09392
2723.31635	0.09289
2721.38766	0.09183
2719.45896	0.09070
2717.53027	0.08951
2715.60157	0.08841
2713.67288	0.08757
2711.74419	0.08698
2709.81549	0.08646
2707.88680	0.08584
2705.95810	0.08509
2704.02941	0.08430
2702.10071	0.08353
2700.17202	0.08280
2698.24332	0.08204
2696.31463	0.08127
2694.38594	0.08047
2692.45724	0.07966
2690.52855	0.07892
2688.59985	0.07831
2686.67116	0.07772
2684.74246	0.07709
2682.81377	0.07645
2680.88508	0.07590
2678.95638	0.07540
2677.02769	0.07489
2675.09899	0.07435
2673.17030	0.07384
2671.24160	0.07333
2669.31291	0.07276
2667.38422	0.07218
2665.45552	0.07172
2663.52683	0.07137
2661.59813	0.07105
2659.66944	0.07070
2657.74074	0.07034
2655.81205	0.07002
2653.88336	0.06981
2651.95466	0.06967
2650.02597	0.06950
2648.09727	0.06917
2646.16858	0.06869
2644.23988	0.06822
2642.31119	0.06789
2640.38250	0.06773
2638.45380	0.06770
2636.52511	0.06769
2634.59641	0.06764
2632.66772	0.06755
2630.73902	0.06742
2628.81033	0.06728
2626.88164	0.06714
2624.95294	0.06701
2623.02425	0.06690
2621.09555	0.06681
2619.16686	0.06671
2617.23816	0.06654
2615.30947	0.06635
2613.38078	0.06622
2611.45208	0.06618
2609.52339	0.06614
2607.59469	0.06613
2605.66600	0.06626
2603.73730	0.06654
2601.80861	0.06682
2599.87992	0.06702
2597.95122	0.06711
2596.02253	0.06715
2594.09383	0.06716
2592.16514	0.06720
2590.23644	0.06731
2588.30775	0.06751
2586.37906	0.06776
2584.45036	0.06798
2582.52167	0.06818
2580.59297	0.06846
2578.66428	0.06884
2576.73558	0.06922
2574.80689	0.06950
2572.87820	0.06967
2570.94950	0.06984
2569.02081	0.07011
2567.09211	0.07048
2565.16342	0.07087
2563.23472	0.07123
2561.30603	0.07165
2559.37734	0.07217
2557.44864	0.07277
2555.51995	0.07329
2553.59125	0.07366
2551.66256	0.07394
2549.73386	0.07425
2547.80517	0.07468
2545.87648	0.07520
2543.94778	0.07574
2542.01909	0.07622
2540.09039	0.07663
2538.16170	0.07699
2536.23300	0.07737
2534.30431	0.07781
2532.37562	0.07828
2530.44692	0.07875
2528.51823	0.07921
2526.58953	0.07968
2524.66084	0.08014
2522.73214	0.08059
2520.80345	0.08103
2518.87476	0.08150
2516.94606	0.08198
2515.01737	0.08245
2513.08867	0.08293
2511.15998	0.08345
2509.23128	0.08402
2507.30259	0.08465
2505.37389	0.08525
2503.44520	0.08571
2501.51651	0.08604
2499.58781	0.08638
2497.65912	0.08681
2495.73042	0.08728
2493.80173	0.08770
2491.87303	0.08808
2489.94434	0.08848
2488.01565	0.08894
2486.08695	0.08945
2484.15826	0.08994
2482.22956	0.09039
2480.30087	0.09082
2478.37217	0.09126
2476.44348	0.09174
2474.51479	0.09226
2472.58609	0.09278
2470.65740	0.09322
2468.72870	0.09362
2466.80001	0.09406
2464.87131	0.09458
2462.94262	0.09509
2461.01393	0.09552
2459.08523	0.09599
2457.15654	0.09658
2455.22784	0.09724
2453.29915	0.09781
2451.37045	0.09830
2449.44176	0.09885
2447.51307	0.09957
2445.58437	0.10028
2443.65568	0.10085
2441.72698	0.10131
2439.79829	0.10182
2437.86959	0.10245
2435.94090	0.10315
2434.01221	0.10388
2432.08351	0.10454
2430.15482	0.10512
2428.22612	0.10572
2426.29743	0.10643
2424.36873	0.10719
2422.44004	0.10794
2420.51135	0.10867
2418.58265	0.10939
2416.65396	0.11013
2414.72526	0.11085
2412.79657	0.11157
2410.86787	0.11226
2408.93918	0.11288
2407.01049	0.11343
2405.08179	0.11398
2403.15310	0.11460
2401.22440	0.11527
2399.29571	0.11593
2397.36701	0.11656
2395.43832	0.11712
2393.50963	0.11764
2391.58093	0.11818
2389.65224	0.11880
2387.72354	0.11950
2385.79485	0.12026
2383.86615	0.12112
2381.93746	0.12204
2380.00877	0.12295
2378.08007	0.12376
2376.15138	0.12451
2374.22268	0.12532
2372.29399	0.12639
2370.36529	0.12770
2368.43660	0.12886
2366.50791	0.12959
2364.57921	0.13022
2362.65052	0.13120
2360.72182	0.13237
2358.79313	0.13331
2356.86443	0.13390
2354.93574	0.13423
2353.00705	0.13446
2351.07835	0.13479
2349.14966	0.13534
2347.22096	0.13616
2345.29227	0.13728
2343.36357	0.13852
2341.43488	0.13945
2339.50619	0.13993
2337.57749	0.14027
2335.64880	0.14078
2333.72010	0.14150
2331.79141	0.14227
2329.86271	0.14297
2327.93402	0.14352
2326.00533	0.14408
2324.07663	0.14489
2322.14794	0.14593
2320.21924	0.14688
2318.29055	0.14761
2316.36185	0.14825
2314.43316	0.14894
2312.50447	0.14966
2310.57577	0.15036
2308.64708	0.15107
2306.71838	0.15182
2304.78969	0.15255
2302.86099	0.15327
2300.93230	0.15400
2299.00360	0.15477
2297.07491	0.15559
2295.14622	0.15643
2293.21752	0.15730
2291.28883	0.15823
2289.36013	0.15921
2287.43144	0.16012
2285.50274	0.16089
2283.57405	0.16157
2281.64536	0.16228
2279.71666	0.16308
2277.78797	0.16393
2275.85927	0.16477
2273.93058	0.16560
2272.00188	0.16647
2270.07319	0.16734
2268.14450	0.16820
2266.21580	0.16907
2264.28711	0.17003
2262.35841	0.17103
2260.42972	0.17195
2258.50102	0.17270
2256.57233	0.17336
2254.64364	0.17405
2252.71494	0.17479
2250.78625	0.17552
2248.85755	0.17624
2246.92886	0.17702
2245.00016	0.17789
2243.07147	0.17875
2241.14278	0.17949
2239.21408	0.18012
2237.28539	0.18075
2235.35669	0.18149
2233.42800	0.18231
2231.49930	0.18310
2229.57061	0.18383
2227.64192	0.18459
2225.71322	0.18538
2223.78453	0.18612
2221.85583	0.18678
2219.92714	0.18744
2217.99844	0.18812
2216.06975	0.18880
2214.14106	0.18949
2212.21236	0.19019
2210.28367	0.19090
2208.35497	0.19162
2206.42628	0.19232
2204.49758	0.19293
2202.56889	0.19348
2200.64020	0.19407
2198.71150	0.19477
2196.78281	0.19553
2194.85411	0.19628
2192.92542	0.19700
2190.99672	0.19766
2189.06803	0.19819
2187.13934	0.19858
2185.21064	0.19891
2183.28195	0.19929
2181.35325	0.19976
2179.42456	0.20030
2177.49586	0.20086
2175.56717	0.20133
2173.63848	0.20167
2171.70978	0.20196
2169.78109	0.20228
2167.85239	0.20264
2165.92370	0.20300
2163.99500	0.20339
2162.06631	0.20376
2160.13762	0.20403
2158.20892	0.20420
2156.28023	0.20436
2154.35153	0.20456
2152.42284	0.20479
2150.49414	0.20502
2148.56545	0.20525
2146.63676	0.20552
2144.70806	0.20577
2142.77937	0.20590
2140.85067	0.20589
2138.92198	0.20583
2136.99328	0.20581
2135.06459	0.20583
2133.13590	0.20587
2131.20720	0.20593
2129.27851	0.20598
2127.34981	0.20601
2125.42112	0.20598
2123.49242	0.20588
2121.56373	0.20570
2119.63504	0.20547
2117.70634	0.20518
2115.77765	0.20487
2113.84895	0.20457
2111.92026	0.20432
2109.99156	0.20411
2108.06287	0.20391
2106.13417	0.20369
2104.20548	0.20341
2102.27679	0.20307
2100.34809	0.20274
2098.41940	0.20244
2096.49070	0.20213
2094.56201	0.20172
2092.63331	0.20122
2090.70462	0.20070
2088.77593	0.20021
2086.84723	0.19973
2084.91854	0.19925
2082.98984	0.19876
2081.06115	0.19828
2079.13245	0.19778
2077.20376	0.19723
2075.27507	0.19662
2073.34637	0.19593
2071.41768	0.19520
2069.48898	0.19448
2067.56029	0.19384
2065.63159	0.19321
2063.70290	0.19250
2061.77421	0.19172
2059.84551	0.19093
2057.91682	0.19018
2055.98812	0.18947
2054.05943	0.18878
2052.13073	0.18804
2050.20204	0.18724
2048.27335	0.18644
2046.34465	0.18566
2044.41596	0.18485
2042.48726	0.18397
2040.55857	0.18307
2038.62987	0.18219
2036.70118	0.18130
2034.77249	0.18036
2032.84379	0.17939
2030.91510	0.17850
2028.98640	0.17771
2027.05771	0.17696
2025.12901	0.17613
2023.20032	0.17522
2021.27163	0.17428
2019.34293	0.17334
2017.41424	0.17238
2015.48554	0.17144
2013.55685	0.17054
2011.62815	0.16962
2009.69946	0.16864
2007.77077	0.16766
2005.84207	0.16675
2003.91338	0.16590
2001.98468	0.16503
2000.05599	0.16410
1998.12729	0.16315
1996.19860	0.16224
1994.26991	0.16133
1992.34121	0.16036
1990.41252	0.15936
1988.48382	0.15839
1986.55513	0.15747
1984.62643	0.15661
1982.69774	0.15582
1980.76905	0.15505
1978.84035	0.15428
1976.91166	0.15354
1974.98296	0.15277
1973.05427	0.15190
1971.12557	0.15100
1969.19688	0.15019
1967.26819	0.14948
1965.33949	0.14882
1963.41080	0.14817
1961.48210	0.14751
1959.55341	0.14681
1957.62471	0.14606
1955.69602	0.14527
1953.76733	0.14452
1951.83863	0.14395
1949.90994	0.14355
1947.98124	0.14314
1946.05255	0.14259
1944.12385	0.14189
1942.19516	0.14121
1940.26647	0.14074
1938.33777	0.14043
1936.40908	0.14017
1934.48038	0.13988
1932.55169	0.13955
1930.62299	0.13919
1928.69430	0.13889
1926.76561	0.13873
1924.83691	0.13869
1922.90822	0.13860
1920.97952	0.13835
1919.05083	0.13798
1917.12213	0.13758
1915.19344	0.13722
1913.26475	0.13685
1911.33605	0.13641
1909.40736	0.13595
1907.47866	0.13549
1905.54997	0.13510
1903.62127	0.13481
1901.69258	0.13462
1899.76388	0.13446
1897.83519	0.13431
1895.90650	0.13417
1893.97780	0.13404
1892.04911	0.13390
1890.12041	0.13375
1888.19172	0.13360
1886.26302	0.13355
1884.33433	0.13360
1882.40564	0.13370
1880.47694	0.13378
1878.54825	0.13386
1876.61955	0.13400
1874.69086	0.13420
1872.76216	0.13445
1870.83347	0.13473
1868.90478	0.13500
1866.97608	0.13520
1865.04739	0.13539
1863.11869	0.13560
1861.19000	0.13577
1859.26130	0.13595
1857.33261	0.13631
1855.40392	0.13682
1853.47522	0.13733
1851.54653	0.13778
1849.61783	0.13821
1847.68914	0.13867
1845.76044	0.13920
1843.83175	0.13976
1841.90306	0.14030
1839.97436	0.14080
1838.04567	0.14125
1836.11697	0.14171
1834.18828	0.14226
1832.25958	0.14291
1830.33089	0.14365
1828.40220	0.14451
1826.47350	0.14549
1824.54481	0.14655
1822.61611	0.14752
1820.68742	0.14835
1818.75872	0.14927
1816.83003	0.15036
1814.90134	0.15152
1812.97264	0.15268
1811.04395	0.15380
1809.11525	0.15493
1807.18656	0.15621
1805.25786	0.15766
1803.32917	0.15921
1801.40048	0.16081
1799.47178	0.16234
1797.54309	0.16372
1795.61439	0.16513
1793.68570	0.16675
1791.75700	0.16860
1789.82831	0.17049
1787.89962	0.17233
1785.97092	0.17424
1784.04223	0.17628
1782.11353	0.17837
1780.18484	0.18057
1778.25614	0.18299
1776.32745	0.18564
1774.39876	0.18873
1772.47006	0.19234
1770.54137	0.19608
1768.61267	0.19988
1766.68398	0.20401
1764.75528	0.20884
1762.82659	0.21515
1760.89790	0.22361
1758.96920	0.23419
1757.04051	0.24687
1755.11181	0.26137
1753.18312	0.27700
1751.25442	0.29382
1749.32573	0.31094
1747.39704	0.32442
1745.46834	0.33251
1743.53965	0.33643
1741.61095	0.33656
1739.68226	0.33371
1737.75356	0.32956
1735.82487	0.32495
1733.89618	0.32030
1731.96748	0.31680
1730.03879	0.31478
1728.11009	0.31346
1726.18140	0.31243
1724.25270	0.31196
1722.32401	0.31204
1720.39532	0.31202
1718.46662	0.31128
1716.53793	0.31003
1714.60923	0.30935
1712.68054	0.30951
1710.75184	0.31007
1708.82315	0.31091
1706.89446	0.31212
1704.96576	0.31368
1703.03707	0.31577
1701.10837	0.31895
1699.17968	0.32316
1697.25098	0.32739
1695.32229	0.33120
1693.39359	0.33463
1691.46490	0.33788
1689.53621	0.34148
1687.60751	0.34555
1685.67882	0.34978
1683.75012	0.35370
1681.82143	0.35650
1679.89273	0.35860
1677.96404	0.36105
1676.03535	0.36413
1674.10665	0.36748
1672.17796	0.37078
1670.24926	0.37394
1668.32057	0.37667
1666.39187	0.37844
1664.46318	0.38013
1662.53449	0.38396
1660.60579	0.38948
1658.67710	0.39333
1656.74840	0.39478
1654.81971	0.39516
1652.89101	0.39569
1650.96232	0.39663
1649.03363	0.39581
1647.10493	0.39174
1645.17624	0.38722
1643.24754	0.38525
1641.31885	0.38513
1639.39015	0.38555
1637.46146	0.38487
1635.53277	0.38195
1633.60407	0.37961
1631.67538	0.37919
1629.74668	0.37870
1627.81799	0.37660
1625.88929	0.37261
1623.96060	0.36730
1622.03191	0.36175
1620.10321	0.35612
1618.17452	0.34873
1616.24582	0.33877
1614.31713	0.32924
1612.38843	0.32213
1610.45974	0.31627
1608.53105	0.31037
1606.60235	0.30428
1604.67366	0.29855
1602.74496	0.29395
1600.81627	0.29093
1598.88757	0.28909
1596.95888	0.28756
1595.03019	0.28600
1593.10149	0.28466
1591.17280	0.28362
1589.24410	0.28275
1587.31541	0.28183
1585.38671	0.28070
1583.45802	0.27980
1581.52933	0.28001
1579.60063	0.28136
1577.67194	0.28326
1575.74324	0.28559
1573.81455	0.28839
1571.88585	0.29123
1569.95716	0.29410
1568.02847	0.29765
1566.09977	0.30199
1564.17108	0.30610
1562.24238	0.30942
1560.31369	0.31254
1558.38499	0.31584
1556.45630	0.31775
1554.52761	0.31835
1552.59891	0.31874
1550.67022	0.31926
1548.74152	0.32008
1546.81283	0.32119
1544.88413	0.32247
1542.95544	0.32353
1541.02675	0.32257
1539.09805	0.31870
1537.16936	0.31398
1535.24066	0.30910
1533.31197	0.30492
1531.38327	0.30300
1529.45458	0.30267
1527.52589	0.30196
1525.59719	0.30034
1523.66850	0.29819
1521.73980	0.29546
1519.81111	0.29214
1517.88241	0.28874
1515.95372	0.28556
1514.02503	0.28283
1512.09633	0.28080
1510.16764	0.27928
1508.23894	0.27733
1506.31025	0.27418
1504.38155	0.27116
1502.45286	0.26917
1500.52416	0.26803
1498.59547	0.26760
1496.66678	0.26768
1494.73808	0.26810
1492.80939	0.26884
1490.88069	0.26990
1488.95200	0.27101
1487.02330	0.27182
1485.09461	0.27242
1483.16592	0.27306
1481.23722	0.27389
1479.30853	0.27501
1477.37983	0.27657
1475.45114	0.27916
1473.52244	0.28431
1471.59375	0.29252
1469.66506	0.30108
1467.73636	0.30775
1465.80767	0.31238
1463.87897	0.31517
1461.95028	0.31666
1460.02158	0.31763
1458.09289	0.31853
1456.16420	0.31884
1454.23550	0.31787
1452.30681	0.31601
1450.37811	0.31358
1448.44942	0.31060
1446.52072	0.30738
1444.59203	0.30465
1442.66334	0.30271
1440.73464	0.30133
1438.80595	0.30007
1436.87725	0.29853
1434.94856	0.29677
1433.01986	0.29522
1431.09117	0.29405
1429.16248	0.29336
1427.23378	0.29322
1425.30509	0.29347
1423.37639	0.29379
1421.44770	0.29410
1419.51900	0.29459
1417.59031	0.29543
1415.66162	0.29623
1413.73292	0.29644
1411.80423	0.29585
1409.87553	0.29486
1407.94684	0.29402
1406.01814	0.29340
1404.08945	0.29283
1402.16076	0.29227
1400.23206	0.29151
1398.30337	0.29036
1396.37467	0.28918
1394.44598	0.28858
1392.51728	0.28870
1390.58859	0.28940
1388.65990	0.29071
1386.73120	0.29250
1384.80251	0.29431
1382.87381	0.29574
1380.94512	0.29664
1379.01642	0.29687
1377.08773	0.29591
1375.15904	0.29332
1373.23034	0.28969
1371.30165	0.28622
1369.37295	0.28323
1367.44426	0.28041
1365.51556	0.27778
1363.58687	0.27575
1361.65818	0.27467
1359.72948	0.27418
1357.80079	0.27361
1355.87209	0.27284
1353.94340	0.27231
1352.01470	0.27231
1350.08601	0.27270
1348.15732	0.27320
1346.22862	0.27370
1344.29993	0.27424
1342.37123	0.27479
1340.44254	0.27529
1338.51384	0.27571
1336.58515	0.27607
1334.65646	0.27638
1332.72776	0.27663
1330.79907	0.27694
1328.87037	0.27748
1326.94168	0.27833
1325.01298	0.27927
1323.08429	0.28002
1321.15560	0.28037
1319.22690	0.28025
1317.29821	0.27978
1315.36951	0.27926
1313.44082	0.27890
1311.51212	0.27844
1309.58343	0.27760
1307.65474	0.27662
1305.72604	0.27596
1303.79735	0.27574
1301.86865	0.27555
1299.93996	0.27501
1298.01126	0.27416
1296.08257	0.27335
1294.15387	0.27284
1292.22518	0.27281
1290.29649	0.27332
1288.36779	0.27412
1286.43910	0.27496
1284.51040	0.27586
1282.58171	0.27697
1280.65301	0.27815
1278.72432	0.27916
1276.79563	0.27991
1274.86693	0.28040
1272.93824	0.28054
1271.00954	0.28022
1269.08085	0.27950
1267.15215	0.27862
1265.22346	0.27783
1263.29477	0.27728
1261.36607	0.27694
1259.43738	0.27670
1257.50868	0.27662
1255.57999	0.27688
1253.65129	0.27739
1251.72260	0.27782
1249.79391	0.27809
1247.86521	0.27833
1245.93652	0.27861
1244.00782	0.27887
1242.07913	0.27909
1240.15043	0.27916
1238.22174	0.27877
1236.29305	0.27774
1234.36435	0.27641
1232.43566	0.27536
1230.50696	0.27462
1228.57827	0.27382
1226.64957	0.27284
1224.72088	0.27199
1222.79219	0.27146
1220.86349	0.27100
1218.93480	0.27041
1217.00610	0.26980
1215.07741	0.26932
1213.14871	0.26888
1211.22002	0.26843
1209.29133	0.26806
1207.36263	0.26787
1205.43394	0.26800
1203.50524	0.26850
1201.57655	0.26929
1199.64785	0.27030
1197.71916	0.27144
1195.79047	0.27247
1193.86177	0.27332
1191.93308	0.27426
1190.00438	0.27558
1188.07569	0.27717
1186.14699	0.27881
1184.21830	0.28030
1182.28961	0.28153
1180.36091	0.28250
1178.43222	0.28355
1176.50352	0.28497
1174.57483	0.28645
1172.64613	0.28745
1170.71744	0.28800
1168.78875	0.28848
1166.86005	0.28887
1164.93136	0.28882
1163.00266	0.28824
1161.07397	0.28728
1159.14527	0.28594
1157.21658	0.28416
1155.28789	0.28205
1153.35919	0.27994
1151.43050	0.27818
1149.50180	0.27698
1147.57311	0.27612
1145.64441	0.27505
1143.71572	0.27341
1141.78703	0.27132
1139.85833	0.26910
1137.92964	0.26693
1136.00094	0.26491
1134.07225	0.26302
1132.14355	0.26135
1130.21486	0.26026
1128.28617	0.26012
1126.35747	0.26090
1124.42878	0.26215
1122.50008	0.26334
1120.57139	0.26390
1118.64269	0.26364
1116.71400	0.26327
1114.78531	0.26379
1112.85661	0.26528
1110.92792	0.26713
1108.99922	0.26913
1107.07053	0.27168
1105.14183	0.27534
1103.21314	0.28039
1101.28444	0.28668
1099.35575	0.29376
1097.42706	0.30148
1095.49836	0.31017
1093.56967	0.31998
1091.64097	0.32991
1089.71228	0.33802
1087.78358	0.34266
1085.85489	0.34324
1083.92620	0.33985
1081.99750	0.33325
1080.06881	0.32490
1078.14011	0.31644
1076.21142	0.30871
1074.28272	0.30152
1072.35403	0.29469
1070.42534	0.28897
1068.49664	0.28552
1066.56795	0.28447
1064.63925	0.28518
1062.71056	0.28790
1060.78186	0.29455
1058.85317	0.30712
1056.92448	0.32595
1054.99578	0.34974
1053.06709	0.37646
1051.13839	0.40374
1049.20970	0.42889
1047.28100	0.44793
1045.35231	0.45551
1043.42362	0.44852
1041.49492	0.42914
1039.56623	0.40283
1037.63753	0.37488
1035.70884	0.34927
1033.78014	0.32844
1031.85145	0.31278
1029.92276	0.30107
1027.99406	0.29166
1026.06537	0.28368
1024.13667	0.27719
1022.20798	0.27237
1020.27928	0.26886
1018.35059	0.26610
1016.42190	0.26388
1014.49320	0.26217
1012.56451	0.26089
1010.63581	0.25983
1008.70712	0.25883
1006.77842	0.25780
1004.84973	0.25673
1002.92104	0.25590
1000.99234	0.25572
999.06365	0.25623
997.13495	0.25694
995.20626	0.25741
993.27756	0.25772
991.34887	0.25824
989.42018	0.25911
987.49148	0.26013
985.56279	0.26099
983.63409	0.26160
981.70540	0.26221
979.77670	0.26315
977.84801	0.26444
975.91932	0.26578
973.99062	0.26687
972.06193	0.26766
970.13323	0.26824
968.20454	0.26870
966.27584	0.26901
964.34715	0.26912
962.41846	0.26912
960.48976	0.26926
958.56107	0.26978
956.63237	0.27063
954.70368	0.27147
952.77498	0.27191
950.84629	0.27197
948.91760	0.27190
946.98890	0.27185
945.06021	0.27173
943.13151	0.27162
941.20282	0.27178
939.27412	0.27230
937.34543	0.27301
935.41674	0.27367
933.48804	0.27413
931.55935	0.27450
929.63065	0.27496
927.70196	0.27553
925.77326	0.27607
923.84457	0.27669
921.91588	0.27767
919.98718	0.27893
918.05849	0.28014
916.12979	0.28115
914.20110	0.28212
912.27240	0.28332
910.34371	0.28497
908.41502	0.28708
906.48632	0.28931
904.55763	0.29119
902.62893	0.29258
900.70024	0.29395
898.77154	0.29589
896.84285	0.29857
894.91415	0.30186
892.98546	0.30592
891.05677	0.31145
889.12807	0.31924
887.19938	0.32943
885.27068	0.34140
883.34199	0.35395
881.41329	0.36493
879.48460	0.37129
877.55591	0.37064
875.62721	0.36341
873.69852	0.35243
871.76982	0.34042
869.84113	0.32935
867.91243	0.32115
865.98374	0.31687
864.05505	0.31538
862.12635	0.31477
860.19766	0.31421
858.26896	0.31372
856.34027	0.31340
854.41157	0.31333
852.48288	0.31338
850.55419	0.31327
848.62549	0.31310
846.69680	0.31331
844.76810	0.31400
842.83941	0.31496
840.91071	0.31597
838.98202	0.31693
837.05333	0.31781
835.12463	0.31866
833.19594	0.31961
831.26724	0.32086
829.33855	0.32241
827.40985	0.32380
825.48116	0.32454
823.55247	0.32471
821.62377	0.32485
819.69508	0.32544
817.76638	0.32667
815.83769	0.32840
813.90899	0.33039
811.98030	0.33253
810.05161	0.33465
808.12291	0.33628
806.19422	0.33728
804.26552	0.33829
802.33683	0.33977
800.40813	0.34100
798.47944	0.34103
796.55075	0.34012
794.62205	0.33942
792.69336	0.33954
790.76466	0.34006
788.83597	0.34049
786.90727	0.34109
784.97858	0.34235
783.04989	0.34410
781.12119	0.34556
779.19250	0.34637
777.26380	0.34705
775.33511	0.34831
773.40641	0.34997
771.47772	0.35128
769.54903	0.35204
767.62033	0.35270
765.69164	0.35354
763.76294	0.35455
761.83425	0.35559
759.90555	0.35661
757.97686	0.35796
756.04817	0.35994
754.11947	0.36201
752.19078	0.36339
750.26208	0.36425
748.33339	0.36520
746.40469	0.36606
744.47600	0.36637
742.54731	0.36646
740.61861	0.36737
738.68992	0.36972
736.76122	0.37281
734.83253	0.37519
732.90383	0.37622
730.97514	0.37670
729.04645	0.37771
727.11775	0.37933
725.18906	0.38075
723.26036	0.38120
721.33167	0.38045
719.40297	0.37925
717.47428	0.37861
715.54559	0.37853
713.61689	0.37822
711.68820	0.37759
709.75950	0.37771
707.83081	0.37897
705.90211	0.37990
703.97342	0.37901
702.04472	0.37709
700.11603	0.37579
698.18734	0.37531
696.25864	0.37496
694.32995	0.37499
692.40125	0.37644
690.47256	0.37937
688.54386	0.38197
686.61517	0.38227
684.68648	0.38065
682.75778	0.37913
680.82909	0.37891
678.90039	0.38008
676.97170	0.38227
675.04300	0.38438
673.11431	0.38541
671.18562	0.38525
669.25692	0.38425
667.32823	0.38330
665.39953	0.38293
663.47084	0.38271
661.54214	0.38247
659.61345	0.38218
657.68476	0.38152
655.75606	0.38060
653.82737	0.38019
651.89867	0.38058
649.96998	0.38150
648.04128	0.38304
646.11259	0.38547
644.18390	0.38853
642.25520	0.39086
640.32651	0.39029
638.39781	0.38638
636.46912	0.38243
634.54042	0.38223
632.61173	0.38510
630.68304	0.38726
628.75434	0.38705
626.82565	0.38641
624.89695	0.38754
622.96826	0.39045
621.03956	0.39411
619.11087	0.39793
617.18218	0.40028
615.25348	0.39804
613.32479	0.39161
611.39609	0.38638
609.46740	0.38529
607.53870	0.38441
605.61001	0.37954
603.68132	0.37322
601.75262	0.37104
599.82393	0.37465
597.89523	0.38121
595.96654	0.38773
594.03784	0.39225
592.10915	0.39257
590.18046	0.38848
588.25176	0.38311
586.32307	0.37843
584.39437	0.37298
582.46568	0.36608
580.53698	0.36135
578.60829	0.36278
576.67960	0.36875
574.75090	0.37263
572.82221	0.37226
570.89351	0.37214
568.96482	0.37457
567.03612	0.37653
565.10743	0.37618
563.17874	0.37459
561.25004	0.37262
559.32135	0.37281
557.39265	0.37871
555.46396	0.38626
553.53526	0.38473
551.60657	0.37215
549.67788	0.36021
547.74918	0.35867
545.82049	0.36375
543.89179	0.36483
541.96310	0.35930
540.03440	0.35420
538.10571	0.35655
536.17702	0.36282
534.24832	0.36240
532.31963	0.35191
530.39093	0.33676
528.46224	0.32119
526.53354	0.30796
524.60485	0.29921
522.67616	0.28604
520.74746	0.25731
518.81877	0.23214
516.89007	0.24919
514.96138	0.30605
513.03268	0.33532
511.10399	0.30618
509.17530	0.26668
507.24660	0.24943
505.31791	0.26785
503.38921	0.33047
501.46052	0.40636
499.53182	0.40111
