3996.25459	0.14561
3994.32589	0.14610
3992.39720	0.14632
3990.46851	0.14636
3988.53981	0.14665
3986.61112	0.14741
3984.68242	0.14833
3982.75373	0.14895
3980.82503	0.14904
3978.89634	0.14863
3976.96765	0.14817
3975.03895	0.14832
3973.11026	0.14906
3971.18156	0.14963
3969.25287	0.14980
3967.32417	0.15003
3965.39548	0.15041
3963.46679	0.15074
3961.53809	0.15104
3959.60940	0.15109
3957.68070	0.15056
3955.75201	0.15003
3953.82331	0.15049
3951.89462	0.15187
3949.96593	0.15287
3948.03723	0.15264
3946.10854	0.15174
3944.17984	0.15119
3942.25115	0.15136
3940.32245	0.15197
3938.39376	0.15262
3936.46507	0.15294
3934.53637	0.15277
3932.60768	0.15234
3930.67898	0.15205
3928.75029	0.15203
3926.82159	0.15229
3924.89290	0.15267
3922.96421	0.15273
3921.03551	0.15233
3919.10682	0.15186
3917.17812	0.15155
3915.24943	0.15128
3913.32073	0.15113
3911.39204	0.15147
3909.46334	0.15222
3907.53465	0.15294
3905.60596	0.15361
3903.67726	0.15480
3901.74857	0.15607
3899.81987	0.15585
3897.89118	0.15422
3895.96248	0.15273
3894.03379	0.15232
3892.10510	0.15300
3890.17640	0.15415
3888.24771	0.15519
3886.31901	0.15601
3884.39032	0.15670
3882.46162	0.15713
3880.53293	0.15720
3878.60424	0.15732
3876.67554	0.15812
3874.74685	0.15952
3872.81815	0.16102
3870.88946	0.16224
3868.96076	0.16284
3867.03207	0.16251
3865.10338	0.16172
3863.17468	0.16138
3861.24599	0.16165
3859.31729	0.16213
3857.38860	0.16275
3855.45990	0.16380
3853.53121	0.16509
3851.60252	0.16584
3849.67382	0.16612
3847.74513	0.16644
3845.81643	0.16686
3843.88774	0.16703
3841.95904	0.16683
3840.03035	0.16703
3838.10166	0.16833
3836.17296	0.17009
3834.24427	0.17152
3832.31557	0.17290
3830.38688	0.17445
3828.45818	0.17572
3826.52949	0.17642
3824.60080	0.17721
3822.67210	0.17920
3820.74341	0.18224
3818.81471	0.18449
3816.88602	0.18506
3814.95732	0.18521
3813.02863	0.18623
3811.09994	0.18805
3809.17124	0.18985
3807.24255	0.19084
3805.31385	0.19129
3803.38516	0.19228
3801.45646	0.19423
3799.52777	0.19636
3797.59908	0.19797
3795.67038	0.19919
3793.74169	0.20038
3791.81299	0.20172
3789.88430	0.20330
3787.95560	0.20526
3786.02691	0.20743
3784.09822	0.20927
3782.16952	0.21056
3780.24083	0.21175
3778.31213	0.21324
3776.38344	0.21493
3774.45474	0.21673
3772.52605	0.21880
3770.59736	0.22114
3768.66866	0.22350
3766.73997	0.22572
3764.81127	0.22779
3762.88258	0.22972
3760.95388	0.23185
3759.02519	0.23432
3757.09650	0.23659
3755.16780	0.23835
3753.23911	0.24002
3751.31041	0.24181
3749.38172	0.24365
3747.45302	0.24625
3745.52433	0.24994
3743.59564	0.25344
3741.66694	0.25597
3739.73825	0.25877
3737.80955	0.26291
3735.88086	0.26777
3733.95216	0.27147
3732.02347	0.27396
3730.09478	0.27626
3728.16608	0.27842
3726.23739	0.28044
3724.30869	0.28278
3722.38000	0.28555
3720.45130	0.28828
3718.52261	0.29090
3716.59392	0.29386
3714.66522	0.29772
3712.73653	0.30260
3710.80783	0.30712
3708.87914	0.30956
3706.95044	0.31070
3705.02175	0.31222
3703.09305	0.31469
3701.16436	0.31719
3699.23567	0.31855
3697.30697	0.31891
3695.37828	0.31932
3693.44958	0.32074
3691.52089	0.32322
3689.59219	0.32472
3687.66350	0.32354
3685.73481	0.32152
3683.80611	0.32045
3681.87742	0.32055
3679.94872	0.32173
3678.02003	0.32365
3676.09133	0.32494
3674.16264	0.32421
3672.23395	0.32207
3670.30525	0.31973
3668.37656	0.31793
3666.44786	0.31658
3664.51917	0.31487
3662.59047	0.31258
3660.66178	0.31061
3658.73309	0.30991
3656.80439	0.31012
3654.87570	0.30998
3652.94700	0.30900
3651.01831	0.30734
3649.08961	0.30487
3647.16092	0.30267
3645.23223	0.30221
3643.30353	0.30295
3641.37484	0.30355
3639.44614	0.30345
3637.51745	0.30313
3635.58875	0.30291
3633.66006	0.30244
3631.73137	0.30190
3629.80267	0.30246
3627.87398	0.30399
3625.94528	0.30442
3624.01659	0.30368
3622.08789	0.30363
3620.15920	0.30507
3618.23051	0.30532
3616.30181	0.30213
3614.37312	0.29830
3612.44442	0.29725
3610.51573	0.29855
3608.58703	0.30007
3606.65834	0.30146
3604.72965	0.30284
3602.80095	0.30308
3600.87226	0.30145
3598.94356	0.29868
3597.01487	0.29582
3595.08617	0.29375
3593.15748	0.29423
3591.22879	0.29838
3589.30009	0.30418
3587.37140	0.30674
3585.44270	0.30404
3583.51401	0.30024
3581.58531	0.29902
3579.65662	0.30010
3577.72793	0.30080
3575.79923	0.29938
3573.87054	0.29668
3571.94184	0.29445
3570.01315	0.29409
3568.08445	0.29655
3566.15576	0.30049
3564.22707	0.30214
3562.29837	0.29986
3560.36968	0.29507
3558.44098	0.29131
3556.51229	0.29198
3554.58359	0.29733
3552.65490	0.30441
3550.72621	0.30956
3548.79751	0.31132
3546.86882	0.31117
3544.94012	0.31116
3543.01143	0.31122
3541.08273	0.31054
3539.15404	0.31081
3537.22535	0.31447
3535.29665	0.31978
3533.36796	0.32102
3531.43926	0.31583
3529.51057	0.30886
3527.58187	0.30570
3525.65318	0.30574
3523.72449	0.30541
3521.79579	0.30561
3519.86710	0.30969
3517.93840	0.31574
3516.00971	0.31745
3514.08101	0.31314
3512.15232	0.30961
3510.22362	0.31374
3508.29493	0.32333
3506.36624	0.32867
3504.43754	0.32437
3502.50885	0.31693
3500.58015	0.31615
3498.65146	0.32127
3496.72276	0.32389
3494.79407	0.32140
3492.86538	0.31975
3490.93668	0.32307
3489.00799	0.32881
3487.07929	0.33313
3485.15060	0.33538
3483.22190	0.33562
3481.29321	0.33368
3479.36452	0.33203
3477.43582	0.33282
3475.50713	0.33319
3473.57843	0.33047
3471.64974	0.32793
3469.72104	0.32904
3467.79235	0.33145
3465.86366	0.33145
3463.93496	0.32937
3462.00627	0.32806
3460.07757	0.32941
3458.14888	0.33346
3456.22018	0.33795
3454.29149	0.33951
3452.36280	0.33699
3450.43410	0.33314
3448.50541	0.33139
3446.57671	0.33143
3444.64802	0.32941
3442.71932	0.32421
3440.79063	0.31944
3438.86194	0.31882
3436.93324	0.32332
3435.00455	0.33097
3433.07585	0.33717
3431.14716	0.33935
3429.21846	0.34102
3427.28977	0.34610
3425.36108	0.35173
3423.43238	0.35167
3421.50369	0.34509
3419.57499	0.33934
3417.64630	0.33956
3415.71760	0.34099
3413.78891	0.33803
3411.86022	0.33361
3409.93152	0.33197
3408.00283	0.33132
3406.07413	0.32957
3404.14544	0.33040
3402.21674	0.33794
3400.28805	0.34906
3398.35936	0.35454
3396.43066	0.34997
3394.50197	0.34154
3392.57327	0.33603
3390.64458	0.33267
3388.71588	0.33040
3386.78719	0.33142
3384.85850	0.33620
3382.92980	0.34246
3381.00111	0.34839
3379.07241	0.35254
3377.14372	0.35392
3375.21502	0.35335
3373.28633	0.35225
3371.35764	0.35060
3369.42894	0.34861
3367.50025	0.34775
3365.57155	0.34938
3363.64286	0.35328
3361.71416	0.35782
3359.78547	0.35958
3357.85678	0.35515
3355.92808	0.34609
3353.99939	0.33988
3352.07069	0.34151
3350.14200	0.34848
3348.21330	0.35566
3346.28461	0.36052
3344.35592	0.36202
3342.42722	0.35940
3340.49853	0.35300
3338.56983	0.34490
3336.64114	0.33720
3334.71244	0.33148
3332.78375	0.33048
3330.85506	0.33624
3328.92636	0.34534
3326.99767	0.35124
3325.06897	0.35240
3323.14028	0.35286
3321.21158	0.35393
3319.28289	0.35229
3317.35420	0.34639
3315.42550	0.34136
3313.49681	0.34304
3311.56811	0.35013
3309.63942	0.35559
3307.71072	0.35557
3305.78203	0.35174
3303.85333	0.34612
3301.92464	0.34094
3299.99595	0.34031
3298.06725	0.34491
3296.13856	0.34983
3294.20986	0.35145
3292.28117	0.35111
3290.35247	0.35155
3288.42378	0.35470
3286.49509	0.35997
3284.56639	0.36329
3282.63770	0.36086
3280.70900	0.35526
3278.78031	0.35394
3276.85161	0.36008
3274.92292	0.36741
3272.99423	0.36799
3271.06553	0.36272
3269.13684	0.35735
3267.20814	0.35291
3265.27945	0.34844
3263.35075	0.34667
3261.42206	0.34923
3259.49337	0.35205
3257.56467	0.35190
3255.63598	0.35174
3253.70728	0.35455
3251.77859	0.35753
3249.84989	0.35728
3247.92120	0.35538
3245.99251	0.35389
3244.06381	0.35126
3242.13512	0.34668
3240.20642	0.34265
3238.27773	0.34106
3236.34903	0.34069
3234.42034	0.34005
3232.49165	0.33998
3230.56295	0.34259
3228.63426	0.34751
3226.70556	0.35067
3224.77687	0.34912
3222.84817	0.34529
3220.91948	0.34226
3218.99079	0.33929
3217.06209	0.33582
3215.13340	0.33395
3213.20470	0.33413
3211.27601	0.33469
3209.34731	0.33551
3207.41862	0.33704
3205.48993	0.33829
3203.56123	0.33855
3201.63254	0.33754
3199.70384	0.33525
3197.77515	0.33365
3195.84645	0.33441
3193.91776	0.33524
3191.98907	0.33349
3190.06037	0.33079
3188.13168	0.32968
3186.20298	0.32916
3184.27429	0.32724
3182.34559	0.32430
3180.41690	0.32182
3178.48821	0.32028
3176.55951	0.31965
3174.63082	0.32011
3172.70212	0.32129
3170.77343	0.32240
3168.84473	0.32320
3166.91604	0.32371
3164.98735	0.32397
3163.05865	0.32428
3161.12996	0.32440
3159.20126	0.32331
3157.27257	0.32114
3155.34387	0.31957
3153.41518	0.31966
3151.48649	0.32089
3149.55779	0.32228
3147.62910	0.32324
3145.70040	0.32382
3143.77171	0.32419
3141.84301	0.32358
3139.91432	0.32098
3137.98563	0.31765
3136.05693	0.31655
3134.12824	0.31818
3132.19954	0.31914
3130.27085	0.31703
3128.34215	0.31398
3126.41346	0.31325
3124.48477	0.31494
3122.55607	0.31703
3120.62738	0.31827
3118.69868	0.31855
3116.76999	0.31811
3114.84129	0.31754
3112.91260	0.31744
3110.98390	0.31804
3109.05521	0.31935
3107.12652	0.32086
3105.19782	0.32162
3103.26913	0.32119
3101.34043	0.31995
3099.41174	0.31882
3097.48304	0.31885
3095.55435	0.32003
3093.62566	0.32108
3091.69696	0.32137
3089.76827	0.32177
3087.83957	0.32273
3085.91088	0.32381
3083.98218	0.32501
3082.05349	0.32642
3080.12480	0.32732
3078.19610	0.32706
3076.26741	0.32611
3074.33871	0.32544
3072.41002	0.32578
3070.48132	0.32719
3068.55263	0.32889
3066.62394	0.32977
3064.69524	0.32957
3062.76655	0.32917
3060.83785	0.32940
3058.90916	0.33010
3056.98046	0.33065
3055.05177	0.33107
3053.12308	0.33171
3051.19438	0.33241
3049.26569	0.33263
3047.33699	0.33234
3045.40830	0.33222
3043.47960	0.33277
3041.55091	0.33383
3039.62222	0.33491
3037.69352	0.33558
3035.76483	0.33571
3033.83613	0.33539
3031.90744	0.33495
3029.97874	0.33485
3028.05005	0.33539
3026.12136	0.33651
3024.19266	0.33802
3022.26397	0.33984
3020.33527	0.34189
3018.40658	0.34389
3016.47788	0.34570
3014.54919	0.34762
3012.62050	0.35002
3010.69180	0.35245
3008.76311	0.35400
3006.83441	0.35479
3004.90572	0.35579
3002.97702	0.35699
3001.04833	0.35745
2999.11964	0.35716
2997.19094	0.35727
2995.26225	0.35872
2993.33355	0.36175
2991.40486	0.36608
2989.47616	0.37102
2987.54747	0.37628
2985.61878	0.38210
2983.69008	0.38858
2981.76139	0.39554
2979.83269	0.40270
2977.90400	0.40956
2975.97530	0.41541
2974.04661	0.42008
2972.11792	0.42406
2970.18922	0.42799
2968.26053	0.43191
2966.33183	0.43527
2964.40314	0.43777
2962.47444	0.43962
2960.54575	0.44085
2958.61706	0.44156
2956.68836	0.44214
2954.75967	0.44267
2952.83097	0.44303
2950.90228	0.44409
2948.97358	0.44721
2947.04489	0.45248
2945.11620	0.45870
2943.18750	0.46552
2941.25881	0.47394
2939.33011	0.48467
2937.40142	0.49724
2935.47272	0.51089
2933.54403	0.52480
2931.61534	0.53768
2929.68664	0.54789
2927.75795	0.55367
2925.82925	0.55396
2923.90056	0.54865
2921.97186	0.53791
2920.04317	0.52294
2918.11448	0.50648
2916.18578	0.49111
2914.25709	0.47818
2912.32839	0.46780
2910.39970	0.45867
2908.47100	0.44950
2906.54231	0.44071
2904.61361	0.43371
2902.68492	0.42879
2900.75623	0.42494
2898.82753	0.42123
2896.89884	0.41741
2894.97014	0.41320
2893.04145	0.40836
2891.11275	0.40334
2889.18406	0.39888
2887.25537	0.39532
2885.32667	0.39266
2883.39798	0.39087
2881.46928	0.38992
2879.54059	0.38978
2877.61189	0.39033
2875.68320	0.39123
2873.75451	0.39205
2871.82581	0.39261
2869.89712	0.39310
2867.96842	0.39407
2866.03973	0.39648
2864.11103	0.40105
2862.18234	0.40746
2860.25365	0.41416
2858.32495	0.41931
2856.39626	0.42138
2854.46756	0.41881
2852.53887	0.41044
2850.61017	0.39691
2848.68148	0.38105
2846.75279	0.36586
2844.82409	0.35279
2842.89540	0.34196
2840.96670	0.33301
2839.03801	0.32548
2837.10931	0.31893
2835.18062	0.31324
2833.25193	0.30854
2831.32323	0.30478
2829.39454	0.30143
2827.46584	0.29800
2825.53715	0.29445
2823.60845	0.29107
2821.67976	0.28805
2819.75107	0.28534
2817.82237	0.28282
2815.89368	0.28042
2813.96498	0.27801
2812.03629	0.27550
2810.10759	0.27291
2808.17890	0.27029
2806.25021	0.26766
2804.32151	0.26508
2802.39282	0.26266
2800.46412	0.26041
2798.53543	0.25826
2796.60673	0.25613
2794.67804	0.25390
2792.74935	0.25156
2790.82065	0.24927
2788.89196	0.24718
2786.96326	0.24528
2785.03457	0.24345
2783.10587	0.24154
2781.17718	0.23957
2779.24849	0.23764
2777.31979	0.23573
2775.39110	0.23377
2773.46240	0.23182
2771.53371	0.23006
2769.60501	0.22853
2767.67632	0.22705
2765.74763	0.22545
2763.81893	0.22385
2761.89024	0.22243
2759.96154	0.22107
2758.03285	0.21949
2756.10415	0.21769
2754.17546	0.21600
2752.24677	0.21456
2750.31807	0.21319
2748.38938	0.21171
2746.46068	0.21019
2744.53199	0.20872
2742.60329	0.20732
2740.67460	0.20597
2738.74591	0.20467
2736.81721	0.20340
2734.88852	0.20206
2732.95982	0.20063
2731.03113	0.19913
2729.10243	0.19768
2727.17374	0.19626
2725.24505	0.19470
2723.31635	0.19300
2721.38766	0.19139
2719.45896	0.19008
2717.53027	0.18900
2715.60157	0.18792
2713.67288	0.18672
2711.74419	0.18543
2709.81549	0.18420
2707.88680	0.18313
2705.95810	0.18216
2704.02941	0.18114
2702.10071	0.18003
2700.17202	0.17893
2698.24332	0.17791
2696.31463	0.17694
2694.38594	0.17594
2692.45724	0.17492
2690.52855	0.17386
2688.59985	0.17273
2686.67116	0.17164
2684.74246	0.17072
2682.81377	0.16994
2680.88508	0.16918
2678.95638	0.16835
2677.02769	0.16737
2675.09899	0.16633
2673.17030	0.16536
2671.24160	0.16455
2669.31291	0.16384
2667.38422	0.16315
2665.45552	0.16243
2663.52683	0.16173
2661.59813	0.16108
2659.66944	0.16049
2657.74074	0.15990
2655.81205	0.15930
2653.88336	0.15869
2651.95466	0.15814
2650.02597	0.15766
2648.09727	0.15721
2646.16858	0.15674
2644.23988	0.15626
2642.31119	0.15582
2640.38250	0.15547
2638.45380	0.15521
2636.52511	0.15498
2634.59641	0.15476
2632.66772	0.15459
2630.73902	0.15446
2628.81033	0.15426
2626.88164	0.15387
2624.95294	0.15339
2623.02425	0.15303
2621.09555	0.15288
2619.16686	0.15285
2617.23816	0.15284
2615.30947	0.15282
2613.38078	0.15278
2611.45208	0.15274
2609.52339	0.15272
2607.59469	0.15276
2605.66600	0.15281
2603.73730	0.15286
2601.80861	0.15294
2599.87992	0.15309
2597.95122	0.15325
2596.02253	0.15340
2594.09383	0.15358
2592.16514	0.15377
2590.23644	0.15394
2588.30775	0.15408
2586.37906	0.15427
2584.45036	0.15453
2582.52167	0.15479
2580.59297	0.15504
2578.66428	0.15535
2576.73558	0.15578
2574.80689	0.15628
2572.87820	0.15677
2570.94950	0.15724
2569.02081	0.15768
2567.09211	0.15809
2565.16342	0.15848
2563.23472	0.15885
2561.30603	0.15926
2559.37734	0.15976
2557.44864	0.16036
2555.51995	0.16100
2553.59125	0.16164
2551.66256	0.16223
2549.73386	0.16275
2547.80517	0.16329
2545.87648	0.16390
2543.94778	0.16455
2542.01909	0.16513
2540.09039	0.16564
2538.16170	0.16614
2536.23300	0.16671
2534.30431	0.16736
2532.37562	0.16805
2530.44692	0.16871
2528.51823	0.16929
2526.58953	0.16984
2524.66084	0.17042
2522.73214	0.17103
2520.80345	0.17162
2518.87476	0.17218
2516.94606	0.17284
2515.01737	0.17362
2513.08867	0.17439
2511.15998	0.17499
2509.23128	0.17545
2507.30259	0.17597
2505.37389	0.17660
2503.44520	0.17728
2501.51651	0.17794
2499.58781	0.17860
2497.65912	0.17925
2495.73042	0.17989
2493.80173	0.18056
2491.87303	0.18127
2489.94434	0.18195
2488.01565	0.18255
2486.08695	0.18308
2484.15826	0.18367
2482.22956	0.18436
2480.30087	0.18506
2478.37217	0.18568
2476.44348	0.18624
2474.51479	0.18685
2472.58609	0.18755
2470.65740	0.18830
2468.72870	0.18900
2466.80001	0.18956
2464.87131	0.19000
2462.94262	0.19046
2461.01393	0.19106
2459.08523	0.19177
2457.15654	0.19248
2455.22784	0.19311
2453.29915	0.19366
2451.37045	0.19422
2449.44176	0.19486
2447.51307	0.19563
2445.58437	0.19645
2443.65568	0.19723
2441.72698	0.19794
2439.79829	0.19866
2437.86959	0.19945
2435.94090	0.20029
2434.01221	0.20108
2432.08351	0.20175
2430.15482	0.20238
2428.22612	0.20312
2426.29743	0.20398
2424.36873	0.20488
2422.44004	0.20570
2420.51135	0.20645
2418.58265	0.20723
2416.65396	0.20805
2414.72526	0.20887
2412.79657	0.20965
2410.86787	0.21037
2408.93918	0.21102
2407.01049	0.21169
2405.08179	0.21248
2403.15310	0.21337
2401.22440	0.21427
2399.29571	0.21507
2397.36701	0.21580
2395.43832	0.21656
2393.50963	0.21745
2391.58093	0.21849
2389.65224	0.21985
2387.72354	0.22186
2385.79485	0.22498
2383.86615	0.22948
2381.93746	0.23537
2380.00877	0.24258
2378.08007	0.25111
2376.15138	0.26114
2374.22268	0.27283
2372.29399	0.28606
2370.36529	0.30040
2368.43660	0.31511
2366.50791	0.32910
2364.57921	0.34106
2362.65052	0.34968
2360.72182	0.35336
2358.79313	0.35044
2356.86443	0.34063
2354.93574	0.32576
2353.00705	0.31068
2351.07835	0.30067
2349.14966	0.29749
2347.22096	0.30075
2345.29227	0.30893
2343.36357	0.31774
2341.43488	0.32218
2339.50619	0.32261
2337.57749	0.32173
2335.64880	0.32081
2333.72010	0.32000
2331.79141	0.31880
2329.86271	0.31662
2327.93402	0.31344
2326.00533	0.30959
2324.07663	0.30517
2322.14794	0.30012
2320.21924	0.29488
2318.29055	0.29023
2316.36185	0.28658
2314.43316	0.28381
2312.50447	0.28149
2310.57577	0.27909
2308.64708	0.27634
2306.71838	0.27350
2304.78969	0.27114
2302.86099	0.26951
2300.93230	0.26842
2299.00360	0.26752
2297.07491	0.26666
2295.14622	0.26584
2293.21752	0.26509
2291.28883	0.26437
2289.36013	0.26360
2287.43144	0.26278
2285.50274	0.26219
2283.57405	0.26220
2281.64536	0.26286
2279.71666	0.26383
2277.78797	0.26483
2275.85927	0.26583
2273.93058	0.26680
2272.00188	0.26763
2270.07319	0.26829
2268.14450	0.26892
2266.21580	0.26953
2264.28711	0.27000
2262.35841	0.27027
2260.42972	0.27047
2258.50102	0.27076
2256.57233	0.27113
2254.64364	0.27148
2252.71494	0.27177
2250.78625	0.27206
2248.85755	0.27238
2246.92886	0.27275
2245.00016	0.27324
2243.07147	0.27387
2241.14278	0.27450
2239.21408	0.27493
2237.28539	0.27514
2235.35669	0.27535
2233.42800	0.27574
2231.49930	0.27626
2229.57061	0.27680
2227.64192	0.27729
2225.71322	0.27778
2223.78453	0.27829
2221.85583	0.27879
2219.92714	0.27922
2217.99844	0.27963
2216.06975	0.28004
2214.14106	0.28050
2212.21236	0.28097
2210.28367	0.28140
2208.35497	0.28181
2206.42628	0.28229
2204.49758	0.28290
2202.56889	0.28354
2200.64020	0.28405
2198.71150	0.28438
2196.78281	0.28462
2194.85411	0.28491
2192.92542	0.28529
2190.99672	0.28568
2189.06803	0.28605
2187.13934	0.28648
2185.21064	0.28696
2183.28195	0.28737
2181.35325	0.28764
2179.42456	0.28786
2177.49586	0.28809
2175.56717	0.28830
2173.63848	0.28848
2171.70978	0.28864
2169.78109	0.28882
2167.85239	0.28907
2165.92370	0.28939
2163.99500	0.28969
2162.06631	0.28987
2160.13762	0.28997
2158.20892	0.29001
2156.28023	0.28999
2154.35153	0.28995
2152.42284	0.29006
2150.49414	0.29038
2148.56545	0.29069
2146.63676	0.29082
2144.70806	0.29089
2142.77937	0.29101
2140.85067	0.29117
2138.92198	0.29124
2136.99328	0.29115
2135.06459	0.29098
2133.13590	0.29081
2131.20720	0.29069
2129.27851	0.29064
2127.34981	0.29066
2125.42112	0.29071
2123.49242	0.29072
2121.56373	0.29067
2119.63504	0.29056
2117.70634	0.29036
2115.77765	0.29014
2113.84895	0.28996
2111.92026	0.28982
2109.99156	0.28967
2108.06287	0.28951
2106.13417	0.28931
2104.20548	0.28906
2102.27679	0.28879
2100.34809	0.28859
2098.41940	0.28850
2096.49070	0.28839
2094.56201	0.28813
2092.63331	0.28777
2090.70462	0.28746
2088.77593	0.28724
2086.84723	0.28697
2084.91854	0.28656
2082.98984	0.28610
2081.06115	0.28571
2079.13245	0.28542
2077.20376	0.28521
2075.27507	0.28499
2073.34637	0.28469
2071.41768	0.28430
2069.48898	0.28392
2067.56029	0.28354
2065.63159	0.28307
2063.70290	0.28250
2061.77421	0.28192
2059.84551	0.28136
2057.91682	0.28075
2055.98812	0.28013
2054.05943	0.27961
2052.13073	0.27919
2050.20204	0.27879
2048.27335	0.27837
2046.34465	0.27792
2044.41596	0.27743
2042.48726	0.27688
2040.55857	0.27624
2038.62987	0.27550
2036.70118	0.27479
2034.77249	0.27423
2032.84379	0.27376
2030.91510	0.27322
2028.98640	0.27260
2027.05771	0.27195
2025.12901	0.27129
2023.20032	0.27054
2021.27163	0.26968
2019.34293	0.26874
2017.41424	0.26780
2015.48554	0.26693
2013.55685	0.26621
2011.62815	0.26558
2009.69946	0.26491
2007.77077	0.26407
2005.84207	0.26317
2003.91338	0.26236
2001.98468	0.26163
2000.05599	0.26085
1998.12729	0.25999
1996.19860	0.25916
1994.26991	0.25848
1992.34121	0.25794
1990.41252	0.25735
1988.48382	0.25663
1986.55513	0.25579
1984.62643	0.25491
1982.69774	0.25408
1980.76905	0.25331
1978.84035	0.25255
1976.91166	0.25174
1974.98296	0.25096
1973.05427	0.25027
1971.12557	0.24969
1969.19688	0.24911
1967.26819	0.24844
1965.33949	0.24769
1963.41080	0.24695
1961.48210	0.24622
1959.55341	0.24548
1957.62471	0.24477
1955.69602	0.24410
1953.76733	0.24346
1951.83863	0.24285
1949.90994	0.24229
1947.98124	0.24179
1946.05255	0.24128
1944.12385	0.24068
1942.19516	0.24003
1940.26647	0.23950
1938.33777	0.23918
1936.40908	0.23902
1934.48038	0.23890
1932.55169	0.23875
1930.62299	0.23853
1928.69430	0.23830
1926.76561	0.23812
1924.83691	0.23789
1922.90822	0.23747
1920.97952	0.23694
1919.05083	0.23644
1917.12213	0.23598
1915.19344	0.23552
1913.26475	0.23514
1911.33605	0.23485
1909.40736	0.23456
1907.47866	0.23415
1905.54997	0.23359
1903.62127	0.23303
1901.69258	0.23267
1899.76388	0.23251
1897.83519	0.23238
1895.90650	0.23217
1893.97780	0.23205
1892.04911	0.23215
1890.12041	0.23233
1888.19172	0.23233
1886.26302	0.23211
1884.33433	0.23183
1882.40564	0.23165
1880.47694	0.23166
1878.54825	0.23180
1876.61955	0.23202
1874.69086	0.23235
1872.76216	0.23282
1870.83347	0.23328
1868.90478	0.23349
1866.97608	0.23344
1865.04739	0.23339
1863.11869	0.23357
1861.19000	0.23394
1859.26130	0.23434
1857.33261	0.23471
1855.40392	0.23511
1853.47522	0.23564
1851.54653	0.23626
1849.61783	0.23689
1847.68914	0.23749
1845.76044	0.23805
1843.83175	0.23847
1841.90306	0.23883
1839.97436	0.23927
1838.04567	0.23981
1836.11697	0.24044
1834.18828	0.24120
1832.25958	0.24207
1830.33089	0.24296
1828.40220	0.24374
1826.47350	0.24444
1824.54481	0.24520
1822.61611	0.24600
1820.68742	0.24683
1818.75872	0.24776
1816.83003	0.24880
1814.90134	0.24982
1812.97264	0.25080
1811.04395	0.25179
1809.11525	0.25293
1807.18656	0.25429
1805.25786	0.25578
1803.32917	0.25727
1801.40048	0.25874
1799.47178	0.26013
1797.54309	0.26146
1795.61439	0.26290
1793.68570	0.26448
1791.75700	0.26609
1789.82831	0.26759
1787.89962	0.26907
1785.97092	0.27076
1784.04223	0.27268
1782.11353	0.27467
1780.18484	0.27657
1778.25614	0.27842
1776.32745	0.28048
1774.39876	0.28309
1772.47006	0.28627
1770.54137	0.28951
1768.61267	0.29267
1766.68398	0.29612
1764.75528	0.30045
1762.82659	0.30646
1760.89790	0.31443
1758.96920	0.32391
1757.04051	0.33467
1755.11181	0.34655
1753.18312	0.35897
1751.25442	0.37187
1749.32573	0.38456
1747.39704	0.39423
1745.46834	0.39940
1743.53965	0.40026
1741.61095	0.39694
1739.68226	0.39125
1737.75356	0.38545
1735.82487	0.37966
1733.89618	0.37331
1731.96748	0.36741
1730.03879	0.36279
1728.11009	0.35906
1726.18140	0.35603
1724.25270	0.35395
1722.32401	0.35274
1720.39532	0.35166
1718.46662	0.34970
1716.53793	0.34663
1714.60923	0.34357
1712.68054	0.34132
1710.75184	0.33997
1708.82315	0.33932
1706.89446	0.33875
1704.96576	0.33781
1703.03707	0.33715
1701.10837	0.33768
1699.17968	0.33956
1697.25098	0.34228
1695.32229	0.34525
1693.39359	0.34769
1691.46490	0.34917
1689.53621	0.35029
1687.60751	0.35214
1685.67882	0.35481
1683.75012	0.35685
1681.82143	0.35821
1679.89273	0.36052
1677.96404	0.36338
1676.03535	0.36558
1674.10665	0.36750
1672.17796	0.37039
1670.24926	0.37377
1668.32057	0.37643
1666.39187	0.37835
1664.46318	0.38012
1662.53449	0.38219
1660.60579	0.38460
1658.67710	0.38684
1656.74840	0.38854
1654.81971	0.38963
1652.89101	0.39105
1650.96232	0.39343
1649.03363	0.39482
1647.10493	0.39288
1645.17624	0.38902
1643.24754	0.38631
1641.31885	0.38420
1639.39015	0.38061
1637.46146	0.37612
1635.53277	0.37509
1633.60407	0.37721
1631.67538	0.37650
1629.74668	0.37199
1627.81799	0.36714
1625.88929	0.36482
1623.96060	0.36407
1622.03191	0.36298
1620.10321	0.36134
1618.17452	0.35829
1616.24582	0.35259
1614.31713	0.34629
1612.38843	0.34182
1610.45974	0.33851
1608.53105	0.33477
1606.60235	0.33089
1604.67366	0.32861
1602.74496	0.32843
1600.81627	0.32919
1598.88757	0.33009
1596.95888	0.33130
1595.03019	0.33252
1593.10149	0.33270
1591.17280	0.33192
1589.24410	0.33175
1587.31541	0.33278
1585.38671	0.33374
1583.45802	0.33413
1581.52933	0.33525
1579.60063	0.33786
1577.67194	0.34064
1575.74324	0.34208
1573.81455	0.34332
1571.88585	0.34600
1569.95716	0.34946
1568.02847	0.35210
1566.09977	0.35393
1564.17108	0.35584
1562.24238	0.35730
1560.31369	0.35757
1558.38499	0.35912
1556.45630	0.36344
1554.52761	0.36612
1552.59891	0.36623
1550.67022	0.36571
1548.74152	0.36555
1546.81283	0.36501
1544.88413	0.36347
1542.95544	0.36114
1541.02675	0.35919
1539.09805	0.35907
1537.16936	0.35966
1535.24066	0.35942
1533.31197	0.35806
1531.38327	0.35600
1529.45458	0.35376
1527.52589	0.35154
1525.59719	0.34890
1523.66850	0.34504
1521.73980	0.34105
1519.81111	0.33974
1517.88241	0.34098
1515.95372	0.34203
1514.02503	0.34155
1512.09633	0.33981
1510.16764	0.33705
1508.23894	0.33360
1506.31025	0.33162
1504.38155	0.33192
1502.45286	0.33269
1500.52416	0.33304
1498.59547	0.33274
1496.66678	0.33188
1494.73808	0.33117
1492.80939	0.33129
1490.88069	0.33223
1488.95200	0.33320
1487.02330	0.33369
1485.09461	0.33431
1483.16592	0.33547
1481.23722	0.33700
1479.30853	0.33866
1477.37983	0.34069
1475.45114	0.34407
1473.52244	0.35017
1471.59375	0.35834
1469.66506	0.36556
1467.73636	0.37097
1465.80767	0.37528
1463.87897	0.37851
1461.95028	0.38099
1460.02158	0.38400
1458.09289	0.38745
1456.16420	0.38801
1454.23550	0.38493
1452.30681	0.38118
1450.37811	0.37787
1448.44942	0.37516
1446.52072	0.37335
1444.59203	0.37231
1442.66334	0.37152
1440.73464	0.37064
1438.80595	0.36948
1436.87725	0.36784
1434.94856	0.36600
1433.01986	0.36455
1431.09117	0.36374
1429.16248	0.36370
1427.23378	0.36413
1425.30509	0.36446
1423.37639	0.36470
1421.44770	0.36553
1419.51900	0.36715
1417.59031	0.36849
1415.66162	0.36867
1413.73292	0.36821
1411.80423	0.36798
1409.87553	0.36844
1407.94684	0.36937
1406.01814	0.37011
1404.08945	0.37039
1402.16076	0.37043
1400.23206	0.37013
1398.30337	0.36913
1396.37467	0.36781
1394.44598	0.36692
1392.51728	0.36666
1390.58859	0.36723
1388.65990	0.36896
1386.73120	0.37132
1384.80251	0.37318
1382.87381	0.37431
1380.94512	0.37489
1379.01642	0.37459
1377.08773	0.37271
1375.15904	0.36905
1373.23034	0.36453
1371.30165	0.36046
1369.37295	0.35716
1367.44426	0.35440
1365.51556	0.35202
1363.58687	0.34983
1361.65818	0.34794
1359.72948	0.34684
1357.80079	0.34659
1355.87209	0.34656
1353.94340	0.34631
1352.01470	0.34603
1350.08601	0.34600
1348.15732	0.34608
1346.22862	0.34614
1344.29993	0.34641
1342.37123	0.34696
1340.44254	0.34715
1338.51384	0.34663
1336.58515	0.34622
1334.65646	0.34668
1332.72776	0.34749
1330.79907	0.34788
1328.87037	0.34787
1326.94168	0.34796
1325.01298	0.34824
1323.08429	0.34848
1321.15560	0.34867
1319.22690	0.34887
1317.29821	0.34881
1315.36951	0.34808
1313.44082	0.34694
1311.51212	0.34616
1309.58343	0.34595
1307.65474	0.34582
1305.72604	0.34555
1303.79735	0.34543
1301.86865	0.34542
1299.93996	0.34510
1298.01126	0.34443
1296.08257	0.34399
1294.15387	0.34416
1292.22518	0.34458
1290.29649	0.34486
1288.36779	0.34518
1286.43910	0.34574
1284.51040	0.34635
1282.58171	0.34707
1280.65301	0.34830
1278.72432	0.34993
1276.79563	0.35123
1274.86693	0.35180
1272.93824	0.35197
1271.00954	0.35202
1269.08085	0.35162
1267.15215	0.35048
1265.22346	0.34897
1263.29477	0.34790
1261.36607	0.34764
1259.43738	0.34793
1257.50868	0.34828
1255.57999	0.34856
1253.65129	0.34897
1251.72260	0.34965
1249.79391	0.35040
1247.86521	0.35080
1245.93652	0.35085
1244.00782	0.35102
1242.07913	0.35144
1240.15043	0.35168
1238.22174	0.35146
1236.29305	0.35096
1234.36435	0.35038
1232.43566	0.34962
1230.50696	0.34851
1228.57827	0.34727
1226.64957	0.34624
1224.72088	0.34543
1222.79219	0.34457
1220.86349	0.34365
1218.93480	0.34277
1217.00610	0.34186
1215.07741	0.34103
1213.14871	0.34056
1211.22002	0.34045
1209.29133	0.34037
1207.36263	0.34011
1205.43394	0.33982
1203.50524	0.33987
1201.57655	0.34031
1199.64785	0.34098
1197.71916	0.34179
1195.79047	0.34274
1193.86177	0.34361
1191.93308	0.34419
1190.00438	0.34464
1188.07569	0.34539
1186.14699	0.34653
1184.21830	0.34768
1182.28961	0.34859
1180.36091	0.34941
1178.43222	0.35059
1176.50352	0.35245
1174.57483	0.35485
1172.64613	0.35712
1170.71744	0.35873
1168.78875	0.35967
1166.86005	0.36019
1164.93136	0.36051
1163.00266	0.36091
1161.07397	0.36146
1159.14527	0.36170
1157.21658	0.36116
1155.28789	0.36004
1153.35919	0.35898
1151.43050	0.35839
1149.50180	0.35817
1147.57311	0.35772
1145.64441	0.35654
1143.71572	0.35484
1141.78703	0.35295
1139.85833	0.35070
1137.92964	0.34806
1136.00094	0.34539
1134.07225	0.34298
1132.14355	0.34095
1130.21486	0.33972
1128.28617	0.33980
1126.35747	0.34101
1124.42878	0.34243
1122.50008	0.34326
1120.57139	0.34362
1118.64269	0.34427
1116.71400	0.34554
1114.78531	0.34723
1112.85661	0.34913
1110.92792	0.35136
1108.99922	0.35408
1107.07053	0.35736
1105.14183	0.36117
1103.21314	0.36582
1101.28444	0.37219
1099.35575	0.38077
1097.42706	0.39109
1095.49836	0.40235
1093.56967	0.41381
1091.64097	0.42396
1089.71228	0.43082
1087.78358	0.43344
1085.85489	0.43218
1083.92620	0.42771
1081.99750	0.42104
1080.06881	0.41338
1078.14011	0.40550
1076.21142	0.39795
1074.28272	0.39144
1072.35403	0.38628
1070.42534	0.38204
1068.49664	0.37855
1066.56795	0.37664
1064.63925	0.37739
1062.71056	0.38158
1060.78186	0.38999
1058.85317	0.40368
1056.92448	0.42315
1054.99578	0.44747
1053.06709	0.47453
1051.13839	0.50163
1049.20970	0.52497
1047.28100	0.53925
1045.35231	0.54021
1043.42362	0.52792
1041.49492	0.50586
1039.56623	0.47860
1037.63753	0.45076
1035.70884	0.42584
1033.78014	0.40540
1031.85145	0.38939
1029.92276	0.37687
1027.99406	0.36654
1026.06537	0.35755
1024.13667	0.35000
1022.20798	0.34415
1020.27928	0.33973
1018.35059	0.33633
1016.42190	0.33376
1014.49320	0.33174
1012.56451	0.32987
1010.63581	0.32804
1008.70712	0.32636
1006.77842	0.32495
1004.84973	0.32391
1002.92104	0.32327
1000.99234	0.32289
999.06365	0.32243
997.13495	0.32179
995.20626	0.32126
993.27756	0.32101
991.34887	0.32075
989.42018	0.32012
987.49148	0.31915
985.56279	0.31813
983.63409	0.31720
981.70540	0.31634
979.77670	0.31561
977.84801	0.31511
975.91932	0.31480
973.99062	0.31457
972.06193	0.31438
970.13323	0.31412
968.20454	0.31358
966.27584	0.31265
964.34715	0.31162
962.41846	0.31088
960.48976	0.31056
958.56107	0.31040
956.63237	0.31011
954.70368	0.30960
952.77498	0.30895
950.84629	0.30833
948.91760	0.30799
946.98890	0.30798
945.06021	0.30800
943.13151	0.30769
941.20282	0.30713
939.27412	0.30665
937.34543	0.30633
935.41674	0.30600
933.48804	0.30568
931.55935	0.30564
929.63065	0.30590
927.70196	0.30597
925.77326	0.30557
923.84457	0.30501
921.91588	0.30467
919.98718	0.30466
918.05849	0.30505
916.12979	0.30584
914.20110	0.30670
912.27240	0.30723
910.34371	0.30749
908.41502	0.30788
906.48632	0.30849
904.55763	0.30905
902.62893	0.30959
900.70024	0.31051
898.77154	0.31194
896.84285	0.31381
894.91415	0.31652
892.98546	0.32100
891.05677	0.32788
889.12807	0.33708
887.19938	0.34819
885.27068	0.36068
883.34199	0.37323
881.41329	0.38281
879.48460	0.38561
877.55591	0.37986
875.62721	0.36744
873.69852	0.35206
871.76982	0.33677
869.84113	0.32373
867.91243	0.31472
865.98374	0.31030
864.05505	0.30896
862.12635	0.30853
860.19766	0.30799
858.26896	0.30724
856.34027	0.30629
854.41157	0.30527
852.48288	0.30447
850.55419	0.30383
848.62549	0.30295
846.69680	0.30182
844.76810	0.30098
842.83941	0.30078
840.91071	0.30089
838.98202	0.30081
837.05333	0.30061
835.12463	0.30072
833.19594	0.30131
831.26724	0.30228
829.33855	0.30342
827.40985	0.30433
825.48116	0.30449
823.55247	0.30399
821.62377	0.30367
819.69508	0.30403
817.76638	0.30454
815.83769	0.30470
813.90899	0.30484
811.98030	0.30541
810.05161	0.30631
808.12291	0.30726
806.19422	0.30811
804.26552	0.30904
802.33683	0.31031
800.40813	0.31157
798.47944	0.31214
796.55075	0.31196
794.62205	0.31154
792.69336	0.31123
790.76466	0.31086
788.83597	0.31008
786.90727	0.30878
784.97858	0.30746
783.04989	0.30677
781.12119	0.30676
779.19250	0.30719
777.26380	0.30830
775.33511	0.31011
773.40641	0.31160
771.47772	0.31164
769.54903	0.31068
767.62033	0.31035
765.69164	0.31158
763.76294	0.31358
761.83425	0.31501
759.90555	0.31559
757.97686	0.31604
756.04817	0.31689
754.11947	0.31794
752.19078	0.31865
750.26208	0.31882
748.33339	0.31887
746.40469	0.31944
744.47600	0.32071
742.54731	0.32215
740.61861	0.32283
738.68992	0.32218
736.76122	0.32093
734.83253	0.32103
732.90383	0.32370
730.97514	0.32774
729.04645	0.33035
727.11775	0.32980
725.18906	0.32743
723.26036	0.32619
721.33167	0.32708
719.40297	0.32809
717.47428	0.32766
715.54559	0.32698
713.61689	0.32789
711.68820	0.33060
709.75950	0.33383
707.83081	0.33616
705.90211	0.33699
703.97342	0.33669
702.04472	0.33610
700.11603	0.33598
698.18734	0.33695
696.25864	0.33933
694.32995	0.34259
692.40125	0.34523
690.47256	0.34577
688.54386	0.34403
686.61517	0.34135
684.68648	0.33958
682.75778	0.33959
680.82909	0.34081
678.90039	0.34204
676.97170	0.34268
675.04300	0.34310
673.11431	0.34427
671.18562	0.34688
669.25692	0.34978
667.32823	0.34921
665.39953	0.34568
663.47084	0.34339
661.54214	0.34402
659.61345	0.34661
657.68476	0.34874
655.75606	0.34968
653.82737	0.35083
651.89867	0.35261
649.96998	0.35381
648.04128	0.35310
646.11259	0.34968
644.18390	0.34431
642.25520	0.33993
640.32651	0.33796
638.39781	0.33594
636.46912	0.33217
634.54042	0.32922
632.61173	0.32974
630.68304	0.33235
628.75434	0.33412
626.82565	0.33437
624.89695	0.33388
622.96826	0.33269
621.03956	0.33046
619.11087	0.32746
617.18218	0.32437
615.25348	0.32261
613.32479	0.32389
611.39609	0.32726
609.46740	0.32909
607.53870	0.32775
605.61001	0.32603
603.68132	0.32685
601.75262	0.32862
599.82393	0.32821
597.89523	0.32634
595.96654	0.32534
594.03784	0.32343
592.10915	0.31854
590.18046	0.31450
588.25176	0.31583
586.32307	0.32047
584.39437	0.32333
582.46568	0.32266
580.53698	0.31933
578.60829	0.31369
576.67960	0.30727
574.75090	0.30640
572.82221	0.31729
570.89351	0.33508
568.96482	0.34720
567.03612	0.35011
565.10743	0.35015
563.17874	0.34749
561.25004	0.33625
559.32135	0.32026
557.39265	0.31199
555.46396	0.31630
553.53526	0.32594
551.60657	0.33294
549.67788	0.33840
547.74918	0.34455
545.82049	0.34358
543.89179	0.32708
541.96310	0.30361
540.03440	0.28844
538.10571	0.28254
536.17702	0.27957
534.24832	0.27973
532.31963	0.28061
530.39093	0.26957
528.46224	0.24077
526.53354	0.21252
524.60485	0.21073
522.67616	0.23069
520.74746	0.24179
518.81877	0.23459
516.89007	0.23983
514.96138	0.27900
513.03268	0.32228
511.10399	0.33023
509.17530	0.27200
507.24660	0.14740
505.31791	0.01116
503.38921	0.00312
501.46052	0.10390
499.53182	0.13739
