3996.25459	0.06345
3994.32589	0.06413
3992.39720	0.06473
3990.46851	0.06520
3988.53981	0.06563
3986.61112	0.06604
3984.68242	0.06620
3982.75373	0.06590
3980.82503	0.06545
3978.89634	0.06544
3976.96765	0.06581
3975.03895	0.06594
3973.11026	0.06559
3971.18156	0.06516
3969.25287	0.06515
3967.32417	0.06567
3965.39548	0.06623
3963.46679	0.06631
3961.53809	0.06611
3959.60940	0.06622
3957.68070	0.06668
3955.75201	0.06708
3953.82331	0.06730
3951.89462	0.06753
3949.96593	0.06773
3948.03723	0.06767
3946.10854	0.06756
3944.17984	0.06785
3942.25115	0.06829
3940.32245	0.06808
3938.39376	0.06738
3936.46507	0.06710
3934.53637	0.06752
3932.60768	0.06817
3930.67898	0.06873
3928.75029	0.06911
3926.82159	0.06895
3924.89290	0.06814
3922.96421	0.06711
3921.03551	0.06643
3919.10682	0.06641
3917.17812	0.06703
3915.24943	0.06788
3913.32073	0.06861
3911.39204	0.06908
3909.46334	0.06921
3907.53465	0.06919
3905.60596	0.06943
3903.67726	0.06958
3901.74857	0.06878
3899.81987	0.06772
3897.89118	0.06764
3895.96248	0.06833
3894.03379	0.06908
3892.10510	0.06954
3890.17640	0.06964
3888.24771	0.06948
3886.31901	0.06927
3884.39032	0.06944
3882.46162	0.07027
3880.53293	0.07146
3878.60424	0.07232
3876.67554	0.07252
3874.74685	0.07223
3872.81815	0.07203
3870.88946	0.07241
3868.96076	0.07305
3867.03207	0.07315
3865.10338	0.07265
3863.17468	0.07215
3861.24599	0.07225
3859.31729	0.07288
3857.38860	0.07369
3855.45990	0.07458
3853.53121	0.07545
3851.60252	0.07602
3849.67382	0.07652
3847.74513	0.07721
3845.81643	0.07794
3843.88774	0.07834
3841.95904	0.07835
3840.03035	0.07834
3838.10166	0.07890
3836.17296	0.08009
3834.24427	0.08123
3832.31557	0.08192
3830.38688	0.08239
3828.45818	0.08290
3826.52949	0.08345
3824.60080	0.08388
3822.67210	0.08412
3820.74341	0.08434
3818.81471	0.08510
3816.88602	0.08690
3814.95732	0.08913
3813.02863	0.09068
3811.09994	0.09152
3809.17124	0.09233
3807.24255	0.09329
3805.31385	0.09415
3803.38516	0.09494
3801.45646	0.09589
3799.52777	0.09708
3797.59908	0.09855
3795.67038	0.09999
3793.74169	0.10109
3791.81299	0.10190
3789.88430	0.10246
3787.95560	0.10296
3786.02691	0.10413
3784.09822	0.10626
3782.16952	0.10844
3780.24083	0.10996
3778.31213	0.11132
3776.38344	0.11301
3774.45474	0.11474
3772.52605	0.11620
3770.59736	0.11744
3768.66866	0.11867
3766.73997	0.11998
3764.81127	0.12139
3762.88258	0.12287
3760.95388	0.12441
3759.02519	0.12603
3757.09650	0.12779
3755.16780	0.12988
3753.23911	0.13246
3751.31041	0.13489
3749.38172	0.13606
3747.45302	0.13690
3745.52433	0.13923
3743.59564	0.14280
3741.66694	0.14574
3739.73825	0.14791
3737.80955	0.15035
3735.88086	0.15349
3733.95216	0.15674
3732.02347	0.15983
3730.09478	0.16299
3728.16608	0.16633
3726.23739	0.17010
3724.30869	0.17460
3722.38000	0.17947
3720.45130	0.18422
3718.52261	0.18878
3716.59392	0.19340
3714.66522	0.19833
3712.73653	0.20367
3710.80783	0.20912
3708.87914	0.21430
3706.95044	0.21918
3705.02175	0.22413
3703.09305	0.22959
3701.16436	0.23538
3699.23567	0.24097
3697.30697	0.24648
3695.37828	0.25207
3693.44958	0.25738
3691.52089	0.26247
3689.59219	0.26825
3687.66350	0.27451
3685.73481	0.27990
3683.80611	0.28426
3681.87742	0.28826
3679.94872	0.29261
3678.02003	0.29789
3676.09133	0.30359
3674.16264	0.30751
3672.23395	0.30940
3670.30525	0.31155
3668.37656	0.31473
3666.44786	0.31766
3664.51917	0.31985
3662.59047	0.32200
3660.66178	0.32488
3658.73309	0.32911
3656.80439	0.33411
3654.87570	0.33790
3652.94700	0.33994
3651.01831	0.34181
3649.08961	0.34449
3647.16092	0.34681
3645.23223	0.34835
3643.30353	0.34970
3641.37484	0.35117
3639.44614	0.35298
3637.51745	0.35525
3635.58875	0.35781
3633.66006	0.36035
3631.73137	0.36263
3629.80267	0.36487
3627.87398	0.36784
3625.94528	0.37152
3624.01659	0.37494
3622.08789	0.37732
3620.15920	0.37867
3618.23051	0.38009
3616.30181	0.38243
3614.37312	0.38536
3612.44442	0.38819
3610.51573	0.39044
3608.58703	0.39217
3606.65834	0.39388
3604.72965	0.39547
3602.80095	0.39618
3600.87226	0.39581
3598.94356	0.39551
3597.01487	0.39713
3595.08617	0.40126
3593.15748	0.40631
3591.22879	0.41037
3589.30009	0.41316
3587.37140	0.41497
3585.44270	0.41560
3583.51401	0.41593
3581.58531	0.41810
3579.65662	0.42263
3577.72793	0.42733
3575.79923	0.43047
3573.87054	0.43276
3571.94184	0.43491
3570.01315	0.43677
3568.08445	0.43879
3566.15576	0.44137
3564.22707	0.44299
3562.29837	0.44209
3560.36968	0.43912
3558.44098	0.43670
3556.51229	0.43758
3554.58359	0.44192
3552.65490	0.44761
3550.72621	0.45229
3548.79751	0.45461
3546.86882	0.45571
3544.94012	0.45966
3543.01143	0.46799
3541.08273	0.47634
3539.15404	0.48029
3537.22535	0.47950
3535.29665	0.47602
3533.36796	0.47265
3531.43926	0.47290
3529.51057	0.47765
3527.58187	0.48214
3525.65318	0.48128
3523.72449	0.47694
3521.79579	0.47426
3519.86710	0.47410
3517.93840	0.47355
3516.00971	0.47202
3514.08101	0.47299
3512.15232	0.47923
3510.22362	0.48860
3508.29493	0.49696
3506.36624	0.50263
3504.43754	0.50467
3502.50885	0.50147
3500.58015	0.49504
3498.65146	0.48970
3496.72276	0.48700
3494.79407	0.48629
3492.86538	0.48786
3490.93668	0.49181
3489.00799	0.49611
3487.07929	0.49780
3485.15060	0.49726
3483.22190	0.49933
3481.29321	0.50615
3479.36452	0.51091
3477.43582	0.50692
3475.50713	0.49993
3473.57843	0.50143
3471.64974	0.51330
3469.72104	0.52549
3467.79235	0.52729
3465.86366	0.51825
3463.93496	0.50619
3462.00627	0.49827
3460.07757	0.49700
3458.14888	0.50214
3456.22018	0.51074
3454.29149	0.51686
3452.36280	0.51649
3450.43410	0.51192
3448.50541	0.50835
3446.57671	0.50871
3444.64802	0.51223
3442.71932	0.51713
3440.79063	0.52239
3438.86194	0.52708
3436.93324	0.52933
3435.00455	0.52843
3433.07585	0.52654
3431.14716	0.52626
3429.21846	0.52723
3427.28977	0.52762
3425.36108	0.52794
3423.43238	0.53053
3421.50369	0.53564
3419.57499	0.54089
3417.64630	0.54300
3415.71760	0.53994
3413.78891	0.53313
3411.86022	0.52720
3409.93152	0.52419
3408.00283	0.52145
3406.07413	0.51704
3404.14544	0.51321
3402.21674	0.51175
3400.28805	0.51220
3398.35936	0.51500
3396.43066	0.52051
3394.50197	0.52562
3392.57327	0.52773
3390.64458	0.52829
3388.71588	0.52862
3386.78719	0.52639
3384.85850	0.52009
3382.92980	0.51434
3381.00111	0.51542
3379.07241	0.52259
3377.14372	0.52902
3375.21502	0.53072
3373.28633	0.53056
3371.35764	0.53285
3369.42894	0.53705
3367.50025	0.53746
3365.57155	0.53125
3363.64286	0.52412
3361.71416	0.52271
3359.78547	0.52474
3357.85678	0.52313
3355.92808	0.51713
3353.99939	0.51325
3352.07069	0.51475
3350.14200	0.51763
3348.21330	0.51906
3346.28461	0.52129
3344.35592	0.52441
3342.42722	0.52486
3340.49853	0.52186
3338.56983	0.51873
3336.64114	0.51883
3334.71244	0.52271
3332.78375	0.52540
3330.85506	0.52131
3328.92636	0.51148
3326.99767	0.50311
3325.06897	0.50097
3323.14028	0.50461
3321.21158	0.50998
3319.28289	0.51328
3317.35420	0.51348
3315.42550	0.51313
3313.49681	0.51496
3311.56811	0.51877
3309.63942	0.52124
3307.71072	0.51906
3305.78203	0.51271
3303.85333	0.50738
3301.92464	0.50782
3299.99595	0.51281
3298.06725	0.51684
3296.13856	0.51863
3294.20986	0.52179
3292.28117	0.52641
3290.35247	0.52705
3288.42378	0.52167
3286.49509	0.51521
3284.56639	0.51243
3282.63770	0.51340
3280.70900	0.51523
3278.78031	0.51488
3276.85161	0.51171
3274.92292	0.50849
3272.99423	0.50754
3271.06553	0.50703
3269.13684	0.50422
3267.20814	0.50007
3265.27945	0.49713
3263.35075	0.49468
3261.42206	0.49110
3259.49337	0.48891
3257.56467	0.49113
3255.63598	0.49437
3253.70728	0.49248
3251.77859	0.48614
3249.84989	0.48159
3247.92120	0.48173
3245.99251	0.48404
3244.06381	0.48575
3242.13512	0.48730
3240.20642	0.48950
3238.27773	0.49089
3236.34903	0.49012
3234.42034	0.48732
3232.49165	0.48235
3230.56295	0.47648
3228.63426	0.47347
3226.70556	0.47464
3224.77687	0.47653
3222.84817	0.47637
3220.91948	0.47510
3218.99079	0.47377
3217.06209	0.47166
3215.13340	0.46892
3213.20470	0.46696
3211.27601	0.46626
3209.34731	0.46607
3207.41862	0.46590
3205.48993	0.46518
3203.56123	0.46331
3201.63254	0.46078
3199.70384	0.45852
3197.77515	0.45632
3195.84645	0.45392
3193.91776	0.45216
3191.98907	0.45186
3190.06037	0.45260
3188.13168	0.45286
3186.20298	0.45122
3184.27429	0.44804
3182.34559	0.44503
3180.41690	0.44259
3178.48821	0.43967
3176.55951	0.43634
3174.63082	0.43410
3172.70212	0.43334
3170.77343	0.43305
3168.84473	0.43267
3166.91604	0.43239
3164.98735	0.43192
3163.05865	0.43074
3161.12996	0.42899
3159.20126	0.42742
3157.27257	0.42644
3155.34387	0.42552
3153.41518	0.42364
3151.48649	0.42072
3149.55779	0.41806
3147.62910	0.41674
3145.70040	0.41628
3143.77171	0.41543
3141.84301	0.41392
3139.91432	0.41260
3137.98563	0.41196
3136.05693	0.41144
3134.12824	0.41039
3132.19954	0.40887
3130.27085	0.40741
3128.34215	0.40653
3126.41346	0.40619
3124.48477	0.40572
3122.55607	0.40452
3120.62738	0.40289
3118.69868	0.40147
3116.76999	0.40038
3114.84129	0.39968
3112.91260	0.39971
3110.98390	0.40022
3109.05521	0.39994
3107.12652	0.39830
3105.19782	0.39658
3103.26913	0.39610
3101.34043	0.39632
3099.41174	0.39578
3097.48304	0.39424
3095.55435	0.39269
3093.62566	0.39180
3091.69696	0.39134
3089.76827	0.39094
3087.83957	0.39046
3085.91088	0.38968
3083.98218	0.38830
3082.05349	0.38665
3080.12480	0.38556
3078.19610	0.38530
3076.26741	0.38529
3074.33871	0.38483
3072.41002	0.38386
3070.48132	0.38284
3068.55263	0.38221
3066.62394	0.38195
3064.69524	0.38156
3062.76655	0.38045
3060.83785	0.37855
3058.90916	0.37641
3056.98046	0.37464
3055.05177	0.37356
3053.12308	0.37313
3051.19438	0.37288
3049.26569	0.37218
3047.33699	0.37093
3045.40830	0.36970
3043.47960	0.36912
3041.55091	0.36913
3039.62222	0.36889
3037.69352	0.36771
3035.76483	0.36596
3033.83613	0.36464
3031.90744	0.36422
3029.97874	0.36428
3028.05005	0.36424
3026.12136	0.36395
3024.19266	0.36368
3022.26397	0.36375
3020.33527	0.36440
3018.40658	0.36568
3016.47788	0.36740
3014.54919	0.36915
3012.62050	0.37061
3010.69180	0.37154
3008.76311	0.37175
3006.83441	0.37130
3004.90572	0.37050
3002.97702	0.36974
3001.04833	0.36952
2999.11964	0.37021
2997.19094	0.37155
2995.26225	0.37283
2993.33355	0.37404
2991.40486	0.37617
2989.47616	0.37995
2987.54747	0.38507
2985.61878	0.39102
2983.69008	0.39752
2981.76139	0.40387
2979.83269	0.40904
2977.90400	0.41281
2975.97530	0.41582
2974.04661	0.41865
2972.11792	0.42101
2970.18922	0.42240
2968.26053	0.42318
2966.33183	0.42425
2964.40314	0.42576
2962.47444	0.42742
2960.54575	0.42966
2958.61706	0.43259
2956.68836	0.43487
2954.75967	0.43533
2952.83097	0.43454
2950.90228	0.43380
2948.97358	0.43408
2947.04489	0.43583
2945.11620	0.43884
2943.18750	0.44289
2941.25881	0.44836
2939.33011	0.45545
2937.40142	0.46347
2935.47272	0.47117
2933.54403	0.47763
2931.61534	0.48324
2929.68664	0.48900
2927.75795	0.49311
2925.82925	0.49084
2923.90056	0.48050
2921.97186	0.46560
2920.04317	0.45043
2918.11448	0.43719
2916.18578	0.42597
2914.25709	0.41541
2912.32839	0.40490
2910.39970	0.39550
2908.47100	0.38792
2906.54231	0.38128
2904.61361	0.37441
2902.68492	0.36706
2900.75623	0.35954
2898.82753	0.35224
2896.89884	0.34546
2894.97014	0.33900
2893.04145	0.33253
2891.11275	0.32635
2889.18406	0.32101
2887.25537	0.31645
2885.32667	0.31217
2883.39798	0.30790
2881.46928	0.30391
2879.54059	0.30099
2877.61189	0.29966
2875.68320	0.29940
2873.75451	0.29887
2871.82581	0.29726
2869.89712	0.29488
2867.96842	0.29288
2866.03973	0.29229
2864.11103	0.29341
2862.18234	0.29567
2860.25365	0.29813
2858.32495	0.29970
2856.39626	0.29894
2854.46756	0.29450
2852.53887	0.28623
2850.61017	0.27531
2848.68148	0.26324
2846.75279	0.25114
2844.82409	0.23989
2842.89540	0.23004
2840.96670	0.22172
2839.03801	0.21453
2837.10931	0.20801
2835.18062	0.20205
2833.25193	0.19691
2831.32323	0.19277
2829.39454	0.18930
2827.46584	0.18599
2825.53715	0.18255
2823.60845	0.17912
2821.67976	0.17597
2819.75107	0.17322
2817.82237	0.17070
2815.89368	0.16811
2813.96498	0.16546
2812.03629	0.16289
2810.10759	0.16036
2808.17890	0.15774
2806.25021	0.15502
2804.32151	0.15227
2802.39282	0.14960
2800.46412	0.14719
2798.53543	0.14507
2796.60673	0.14306
2794.67804	0.14094
2792.74935	0.13873
2790.82065	0.13658
2788.89196	0.13454
2786.96326	0.13264
2785.03457	0.13088
2783.10587	0.12920
2781.17718	0.12747
2779.24849	0.12567
2777.31979	0.12386
2775.39110	0.12211
2773.46240	0.12051
2771.53371	0.11907
2769.60501	0.11769
2767.67632	0.11626
2765.74763	0.11484
2763.81893	0.11356
2761.89024	0.11241
2759.96154	0.11123
2758.03285	0.10998
2756.10415	0.10878
2754.17546	0.10769
2752.24677	0.10659
2750.31807	0.10537
2748.38938	0.10403
2746.46068	0.10266
2744.53199	0.10134
2742.60329	0.10021
2740.67460	0.09932
2738.74591	0.09853
2736.81721	0.09759
2734.88852	0.09647
2732.95982	0.09531
2731.03113	0.09415
2729.10243	0.09295
2727.17374	0.09171
2725.24505	0.09050
2723.31635	0.08939
2721.38766	0.08840
2719.45896	0.08746
2717.53027	0.08656
2715.60157	0.08571
2713.67288	0.08494
2711.74419	0.08419
2709.81549	0.08339
2707.88680	0.08250
2705.95810	0.08159
2704.02941	0.08073
2702.10071	0.07993
2700.17202	0.07911
2698.24332	0.07829
2696.31463	0.07753
2694.38594	0.07684
2692.45724	0.07614
2690.52855	0.07539
2688.59985	0.07464
2686.67116	0.07397
2684.74246	0.07337
2682.81377	0.07276
2680.88508	0.07217
2678.95638	0.07163
2677.02769	0.07107
2675.09899	0.07041
2673.17030	0.06970
2671.24160	0.06906
2669.31291	0.06848
2667.38422	0.06793
2665.45552	0.06745
2663.52683	0.06707
2661.59813	0.06675
2659.66944	0.06640
2657.74074	0.06602
2655.81205	0.06561
2653.88336	0.06522
2651.95466	0.06485
2650.02597	0.06450
2648.09727	0.06414
2646.16858	0.06381
2644.23988	0.06352
2642.31119	0.06325
2640.38250	0.06299
2638.45380	0.06277
2636.52511	0.06260
2634.59641	0.06247
2632.66772	0.06233
2630.73902	0.06214
2628.81033	0.06194
2626.88164	0.06177
2624.95294	0.06167
2623.02425	0.06160
2621.09555	0.06150
2619.16686	0.06140
2617.23816	0.06133
2615.30947	0.06130
2613.38078	0.06128
2611.45208	0.06124
2609.52339	0.06114
2607.59469	0.06106
2605.66600	0.06108
2603.73730	0.06120
2601.80861	0.06134
2599.87992	0.06146
2597.95122	0.06159
2596.02253	0.06177
2594.09383	0.06197
2592.16514	0.06208
2590.23644	0.06210
2588.30775	0.06212
2586.37906	0.06221
2584.45036	0.06240
2582.52167	0.06268
2580.59297	0.06301
2578.66428	0.06332
2576.73558	0.06356
2574.80689	0.06381
2572.87820	0.06413
2570.94950	0.06453
2569.02081	0.06492
2567.09211	0.06526
2565.16342	0.06556
2563.23472	0.06585
2561.30603	0.06619
2559.37734	0.06662
2557.44864	0.06709
2555.51995	0.06753
2553.59125	0.06795
2551.66256	0.06838
2549.73386	0.06879
2547.80517	0.06916
2545.87648	0.06948
2543.94778	0.06980
2542.01909	0.07015
2540.09039	0.07062
2538.16170	0.07122
2536.23300	0.07186
2534.30431	0.07240
2532.37562	0.07284
2530.44692	0.07329
2528.51823	0.07379
2526.58953	0.07428
2524.66084	0.07470
2522.73214	0.07508
2520.80345	0.07547
2518.87476	0.07587
2516.94606	0.07629
2515.01737	0.07673
2513.08867	0.07725
2511.15998	0.07780
2509.23128	0.07833
2507.30259	0.07881
2505.37389	0.07927
2503.44520	0.07971
2501.51651	0.08012
2499.58781	0.08053
2497.65912	0.08102
2495.73042	0.08152
2493.80173	0.08196
2491.87303	0.08238
2489.94434	0.08284
2488.01565	0.08335
2486.08695	0.08385
2484.15826	0.08433
2482.22956	0.08480
2480.30087	0.08523
2478.37217	0.08560
2476.44348	0.08595
2474.51479	0.08631
2472.58609	0.08667
2470.65740	0.08708
2468.72870	0.08757
2466.80001	0.08812
2464.87131	0.08866
2462.94262	0.08917
2461.01393	0.08970
2459.08523	0.09026
2457.15654	0.09082
2455.22784	0.09136
2453.29915	0.09194
2451.37045	0.09256
2449.44176	0.09311
2447.51307	0.09358
2445.58437	0.09406
2443.65568	0.09462
2441.72698	0.09522
2439.79829	0.09579
2437.86959	0.09636
2435.94090	0.09697
2434.01221	0.09765
2432.08351	0.09836
2430.15482	0.09908
2428.22612	0.09976
2426.29743	0.10043
2424.36873	0.10114
2422.44004	0.10190
2420.51135	0.10265
2418.58265	0.10334
2416.65396	0.10401
2414.72526	0.10464
2412.79657	0.10525
2410.86787	0.10585
2408.93918	0.10648
2407.01049	0.10713
2405.08179	0.10778
2403.15310	0.10844
2401.22440	0.10907
2399.29571	0.10965
2397.36701	0.11024
2395.43832	0.11089
2393.50963	0.11157
2391.58093	0.11223
2389.65224	0.11289
2387.72354	0.11364
2385.79485	0.11449
2383.86615	0.11543
2381.93746	0.11644
2380.00877	0.11754
2378.08007	0.11872
2376.15138	0.12002
2374.22268	0.12142
2372.29399	0.12281
2370.36529	0.12397
2368.43660	0.12475
2366.50791	0.12526
2364.57921	0.12580
2362.65052	0.12659
2360.72182	0.12758
2358.79313	0.12852
2356.86443	0.12923
2354.93574	0.12967
2353.00705	0.12998
2351.07835	0.13032
2349.14966	0.13079
2347.22096	0.13150
2345.29227	0.13251
2343.36357	0.13358
2341.43488	0.13432
2339.50619	0.13485
2337.57749	0.13566
2335.64880	0.13682
2333.72010	0.13797
2331.79141	0.13889
2329.86271	0.13974
2327.93402	0.14070
2326.00533	0.14155
2324.07663	0.14203
2322.14794	0.14229
2320.21924	0.14263
2318.29055	0.14314
2316.36185	0.14376
2314.43316	0.14452
2312.50447	0.14531
2310.57577	0.14598
2308.64708	0.14653
2306.71838	0.14716
2304.78969	0.14802
2302.86099	0.14899
2300.93230	0.14985
2299.00360	0.15052
2297.07491	0.15111
2295.14622	0.15177
2293.21752	0.15252
2291.28883	0.15329
2289.36013	0.15404
2287.43144	0.15485
2285.50274	0.15579
2283.57405	0.15678
2281.64536	0.15772
2279.71666	0.15861
2277.78797	0.15945
2275.85927	0.16018
2273.93058	0.16087
2272.00188	0.16169
2270.07319	0.16269
2268.14450	0.16378
2266.21580	0.16485
2264.28711	0.16587
2262.35841	0.16679
2260.42972	0.16760
2258.50102	0.16835
2256.57233	0.16912
2254.64364	0.16991
2252.71494	0.17070
2250.78625	0.17144
2248.85755	0.17218
2246.92886	0.17301
2245.00016	0.17393
2243.07147	0.17487
2241.14278	0.17568
2239.21408	0.17640
2237.28539	0.17718
2235.35669	0.17808
2233.42800	0.17899
2231.49930	0.17987
2229.57061	0.18072
2227.64192	0.18153
2225.71322	0.18231
2223.78453	0.18316
2221.85583	0.18405
2219.92714	0.18485
2217.99844	0.18552
2216.06975	0.18617
2214.14106	0.18684
2212.21236	0.18752
2210.28367	0.18825
2208.35497	0.18909
2206.42628	0.18993
2204.49758	0.19067
2202.56889	0.19132
2200.64020	0.19195
2198.71150	0.19259
2196.78281	0.19321
2194.85411	0.19383
2192.92542	0.19447
2190.99672	0.19510
2189.06803	0.19574
2187.13934	0.19641
2185.21064	0.19703
2183.28195	0.19757
2181.35325	0.19806
2179.42456	0.19855
2177.49586	0.19902
2175.56717	0.19947
2173.63848	0.19993
2171.70978	0.20039
2169.78109	0.20085
2167.85239	0.20132
2165.92370	0.20176
2163.99500	0.20206
2162.06631	0.20223
2160.13762	0.20244
2158.20892	0.20276
2156.28023	0.20315
2154.35153	0.20350
2152.42284	0.20375
2150.49414	0.20392
2148.56545	0.20403
2146.63676	0.20411
2144.70806	0.20424
2142.77937	0.20439
2140.85067	0.20453
2138.92198	0.20462
2136.99328	0.20465
2135.06459	0.20466
2133.13590	0.20467
2131.20720	0.20464
2129.27851	0.20454
2127.34981	0.20447
2125.42112	0.20450
2123.49242	0.20450
2121.56373	0.20430
2119.63504	0.20387
2117.70634	0.20341
2115.77765	0.20312
2113.84895	0.20296
2111.92026	0.20276
2109.99156	0.20243
2108.06287	0.20205
2106.13417	0.20172
2104.20548	0.20143
2102.27679	0.20112
2100.34809	0.20071
2098.41940	0.20019
2096.49070	0.19964
2094.56201	0.19912
2092.63331	0.19865
2090.70462	0.19815
2088.77593	0.19755
2086.84723	0.19688
2084.91854	0.19624
2082.98984	0.19570
2081.06115	0.19518
2079.13245	0.19461
2077.20376	0.19401
2075.27507	0.19340
2073.34637	0.19277
2071.41768	0.19205
2069.48898	0.19124
2067.56029	0.19040
2065.63159	0.18964
2063.70290	0.18889
2061.77421	0.18808
2059.84551	0.18727
2057.91682	0.18655
2055.98812	0.18582
2054.05943	0.18498
2052.13073	0.18403
2050.20204	0.18308
2048.27335	0.18219
2046.34465	0.18137
2044.41596	0.18060
2042.48726	0.17979
2040.55857	0.17891
2038.62987	0.17798
2036.70118	0.17702
2034.77249	0.17604
2032.84379	0.17508
2030.91510	0.17420
2028.98640	0.17339
2027.05771	0.17256
2025.12901	0.17163
2023.20032	0.17059
2021.27163	0.16949
2019.34293	0.16834
2017.41424	0.16721
2015.48554	0.16619
2013.55685	0.16528
2011.62815	0.16440
2009.69946	0.16349
2007.77077	0.16254
2005.84207	0.16156
2003.91338	0.16059
2001.98468	0.15966
2000.05599	0.15872
1998.12729	0.15775
1996.19860	0.15682
1994.26991	0.15594
1992.34121	0.15508
1990.41252	0.15418
1988.48382	0.15324
1986.55513	0.15227
1984.62643	0.15136
1982.69774	0.15053
1980.76905	0.14975
1978.84035	0.14891
1976.91166	0.14801
1974.98296	0.14711
1973.05427	0.14626
1971.12557	0.14538
1969.19688	0.14444
1967.26819	0.14354
1965.33949	0.14280
1963.41080	0.14219
1961.48210	0.14161
1959.55341	0.14095
1957.62471	0.14020
1955.69602	0.13946
1953.76733	0.13880
1951.83863	0.13822
1949.90994	0.13771
1947.98124	0.13727
1946.05255	0.13684
1944.12385	0.13635
1942.19516	0.13581
1940.26647	0.13531
1938.33777	0.13487
1936.40908	0.13451
1934.48038	0.13422
1932.55169	0.13395
1930.62299	0.13370
1928.69430	0.13355
1926.76561	0.13350
1924.83691	0.13348
1922.90822	0.13337
1920.97952	0.13317
1919.05083	0.13288
1917.12213	0.13250
1915.19344	0.13203
1913.26475	0.13149
1911.33605	0.13087
1909.40736	0.13027
1907.47866	0.12981
1905.54997	0.12947
1903.62127	0.12920
1901.69258	0.12902
1899.76388	0.12892
1897.83519	0.12882
1895.90650	0.12863
1893.97780	0.12840
1892.04911	0.12821
1890.12041	0.12809
1888.19172	0.12802
1886.26302	0.12804
1884.33433	0.12813
1882.40564	0.12824
1880.47694	0.12839
1878.54825	0.12858
1876.61955	0.12877
1874.69086	0.12894
1872.76216	0.12907
1870.83347	0.12912
1868.90478	0.12912
1866.97608	0.12918
1865.04739	0.12945
1863.11869	0.12994
1861.19000	0.13047
1859.26130	0.13091
1857.33261	0.13129
1855.40392	0.13164
1853.47522	0.13198
1851.54653	0.13239
1849.61783	0.13289
1847.68914	0.13343
1845.76044	0.13395
1843.83175	0.13449
1841.90306	0.13510
1839.97436	0.13573
1838.04567	0.13632
1836.11697	0.13690
1834.18828	0.13752
1832.25958	0.13823
1830.33089	0.13903
1828.40220	0.13985
1826.47350	0.14065
1824.54481	0.14156
1822.61611	0.14253
1820.68742	0.14347
1818.75872	0.14444
1816.83003	0.14549
1814.90134	0.14656
1812.97264	0.14764
1811.04395	0.14880
1809.11525	0.15007
1807.18656	0.15147
1805.25786	0.15287
1803.32917	0.15436
1801.40048	0.15612
1799.47178	0.15796
1797.54309	0.15954
1795.61439	0.16097
1793.68570	0.16261
1791.75700	0.16463
1789.82831	0.16677
1787.89962	0.16879
1785.97092	0.17079
1784.04223	0.17289
1782.11353	0.17518
1780.18484	0.17783
1778.25614	0.18063
1776.32745	0.18333
1774.39876	0.18626
1772.47006	0.18993
1770.54137	0.19422
1768.61267	0.19887
1766.68398	0.20396
1764.75528	0.20988
1762.82659	0.21734
1760.89790	0.22671
1758.96920	0.23777
1757.04051	0.25052
1755.11181	0.26452
1753.18312	0.27895
1751.25442	0.29438
1749.32573	0.31088
1747.39704	0.32488
1745.46834	0.33394
1743.53965	0.33882
1741.61095	0.34048
1739.68226	0.34028
1737.75356	0.33941
1735.82487	0.33819
1733.89618	0.33676
1731.96748	0.33556
1730.03879	0.33503
1728.11009	0.33513
1726.18140	0.33560
1724.25270	0.33623
1722.32401	0.33676
1720.39532	0.33704
1718.46662	0.33736
1716.53793	0.33821
1714.60923	0.33948
1712.68054	0.34094
1710.75184	0.34263
1708.82315	0.34473
1706.89446	0.34750
1704.96576	0.35091
1703.03707	0.35497
1701.10837	0.36023
1699.17968	0.36679
1697.25098	0.37372
1695.32229	0.38028
1693.39359	0.38592
1691.46490	0.39069
1689.53621	0.39527
1687.60751	0.39990
1685.67882	0.40501
1683.75012	0.41178
1681.82143	0.41874
1679.89273	0.42399
1677.96404	0.42838
1676.03535	0.43261
1674.10665	0.43667
1672.17796	0.44052
1670.24926	0.44411
1668.32057	0.44770
1666.39187	0.45139
1664.46318	0.45524
1662.53449	0.46022
1660.60579	0.46612
1658.67710	0.47117
1656.74840	0.47509
1654.81971	0.47763
1652.89101	0.47743
1650.96232	0.47663
1649.03363	0.47692
1647.10493	0.47716
1645.17624	0.47683
1643.24754	0.47561
1641.31885	0.47381
1639.39015	0.47162
1637.46146	0.46685
1635.53277	0.45902
1633.60407	0.45397
1631.67538	0.45301
1629.74668	0.45332
1627.81799	0.45329
1625.88929	0.45091
1623.96060	0.44467
1622.03191	0.43700
1620.10321	0.43031
1618.17452	0.42291
1616.24582	0.41288
1614.31713	0.40268
1612.38843	0.39453
1610.45974	0.38788
1608.53105	0.38207
1606.60235	0.37684
1604.67366	0.37152
1602.74496	0.36568
1600.81627	0.35990
1598.88757	0.35519
1596.95888	0.35196
1595.03019	0.35008
1593.10149	0.34910
1591.17280	0.34849
1589.24410	0.34807
1587.31541	0.34777
1585.38671	0.34749
1583.45802	0.34758
1581.52933	0.34834
1579.60063	0.34936
1577.67194	0.35011
1575.74324	0.35091
1573.81455	0.35228
1571.88585	0.35417
1569.95716	0.35605
1568.02847	0.35741
1566.09977	0.35834
1564.17108	0.35918
1562.24238	0.35990
1560.31369	0.36096
1558.38499	0.36371
1556.45630	0.36658
1554.52761	0.36710
1552.59891	0.36570
1550.67022	0.36358
1548.74152	0.36167
1546.81283	0.35992
1544.88413	0.35750
1542.95544	0.35318
1541.02675	0.34721
1539.09805	0.34349
1537.16936	0.34227
1535.24066	0.34061
1533.31197	0.33813
1531.38327	0.33619
1529.45458	0.33472
1527.52589	0.33218
1525.59719	0.32808
1523.66850	0.32349
1521.73980	0.31923
1519.81111	0.31511
1517.88241	0.31102
1515.95372	0.30743
1514.02503	0.30470
1512.09633	0.30249
1510.16764	0.29975
1508.23894	0.29543
1506.31025	0.29137
1504.38155	0.29012
1502.45286	0.29033
1500.52416	0.29054
1498.59547	0.29015
1496.66678	0.28933
1494.73808	0.28875
1492.80939	0.28870
1490.88069	0.28924
1488.95200	0.29035
1487.02330	0.29167
1485.09461	0.29284
1483.16592	0.29393
1481.23722	0.29509
1479.30853	0.29654
1477.37983	0.29867
1475.45114	0.30235
1473.52244	0.30925
1471.59375	0.31946
1469.66506	0.32959
1467.73636	0.33735
1465.80767	0.34277
1463.87897	0.34634
1461.95028	0.34905
1460.02158	0.35179
1458.09289	0.35441
1456.16420	0.35532
1454.23550	0.35399
1452.30681	0.35143
1450.37811	0.34805
1448.44942	0.34425
1446.52072	0.34080
1444.59203	0.33816
1442.66334	0.33619
1440.73464	0.33455
1438.80595	0.33293
1436.87725	0.33125
1434.94856	0.32993
1433.01986	0.32915
1431.09117	0.32877
1429.16248	0.32895
1427.23378	0.32981
1425.30509	0.33095
1423.37639	0.33194
1421.44770	0.33276
1419.51900	0.33371
1417.59031	0.33495
1415.66162	0.33626
1413.73292	0.33731
1411.80423	0.33777
1409.87553	0.33752
1407.94684	0.33695
1406.01814	0.33651
1404.08945	0.33617
1402.16076	0.33559
1400.23206	0.33476
1398.30337	0.33401
1396.37467	0.33356
1394.44598	0.33330
1392.51728	0.33303
1390.58859	0.33270
1388.65990	0.33236
1386.73120	0.33224
1384.80251	0.33249
1382.87381	0.33276
1380.94512	0.33230
1379.01642	0.33052
1377.08773	0.32724
1375.15904	0.32268
1373.23034	0.31779
1371.30165	0.31364
1369.37295	0.31043
1367.44426	0.30784
1365.51556	0.30562
1363.58687	0.30358
1361.65818	0.30178
1359.72948	0.30060
1357.80079	0.30022
1355.87209	0.30028
1353.94340	0.30016
1352.01470	0.29976
1350.08601	0.29941
1348.15732	0.29926
1346.22862	0.29917
1344.29993	0.29912
1342.37123	0.29908
1340.44254	0.29880
1338.51384	0.29828
1336.58515	0.29797
1334.65646	0.29814
1332.72776	0.29856
1330.79907	0.29907
1328.87037	0.29970
1326.94168	0.30039
1325.01298	0.30099
1323.08429	0.30143
1321.15560	0.30167
1319.22690	0.30166
1317.29821	0.30136
1315.36951	0.30071
1313.44082	0.29969
1311.51212	0.29855
1309.58343	0.29781
1307.65474	0.29774
1305.72604	0.29802
1303.79735	0.29808
1301.86865	0.29769
1299.93996	0.29702
1298.01126	0.29630
1296.08257	0.29578
1294.15387	0.29572
1292.22518	0.29616
1290.29649	0.29691
1288.36779	0.29778
1286.43910	0.29870
1284.51040	0.29982
1282.58171	0.30124
1280.65301	0.30274
1278.72432	0.30391
1276.79563	0.30451
1274.86693	0.30473
1272.93824	0.30482
1271.00954	0.30469
1269.08085	0.30410
1267.15215	0.30311
1265.22346	0.30217
1263.29477	0.30162
1261.36607	0.30130
1259.43738	0.30086
1257.50868	0.30032
1255.57999	0.30003
1253.65129	0.30019
1251.72260	0.30067
1249.79391	0.30107
1247.86521	0.30121
1245.93652	0.30139
1244.00782	0.30190
1242.07913	0.30240
1240.15043	0.30234
1238.22174	0.30167
1236.29305	0.30056
1234.36435	0.29915
1232.43566	0.29766
1230.50696	0.29634
1228.57827	0.29512
1226.64957	0.29390
1224.72088	0.29286
1222.79219	0.29210
1220.86349	0.29141
1218.93480	0.29069
1217.00610	0.29006
1215.07741	0.28951
1213.14871	0.28896
1211.22002	0.28852
1209.29133	0.28839
1207.36263	0.28857
1205.43394	0.28888
1203.50524	0.28915
1201.57655	0.28946
1199.64785	0.29006
1197.71916	0.29102
1195.79047	0.29214
1193.86177	0.29308
1191.93308	0.29372
1190.00438	0.29443
1188.07569	0.29566
1186.14699	0.29739
1184.21830	0.29912
1182.28961	0.30062
1180.36091	0.30220
1178.43222	0.30428
1176.50352	0.30682
1174.57483	0.30939
1172.64613	0.31171
1170.71744	0.31378
1168.78875	0.31553
1166.86005	0.31677
1164.93136	0.31755
1163.00266	0.31809
1161.07397	0.31842
1159.14527	0.31831
1157.21658	0.31777
1155.28789	0.31714
1153.35919	0.31636
1151.43050	0.31489
1149.50180	0.31257
1147.57311	0.31019
1145.64441	0.30843
1143.71572	0.30702
1141.78703	0.30530
1139.85833	0.30319
1137.92964	0.30102
1136.00094	0.29877
1134.07225	0.29634
1132.14355	0.29418
1130.21486	0.29294
1128.28617	0.29281
1126.35747	0.29360
1124.42878	0.29499
1122.50008	0.29644
1120.57139	0.29721
1118.64269	0.29714
1116.71400	0.29708
1114.78531	0.29810
1112.85661	0.30025
1110.92792	0.30271
1108.99922	0.30479
1107.07053	0.30668
1105.14183	0.30933
1103.21314	0.31352
1101.28444	0.31927
1099.35575	0.32630
1097.42706	0.33462
1095.49836	0.34434
1093.56967	0.35510
1091.64097	0.36577
1089.71228	0.37471
1087.78358	0.38034
1085.85489	0.38156
1083.92620	0.37849
1081.99750	0.37266
1080.06881	0.36578
1078.14011	0.35852
1076.21142	0.35089
1074.28272	0.34338
1072.35403	0.33704
1070.42534	0.33280
1068.49664	0.33061
1066.56795	0.32960
1064.63925	0.32941
1062.71056	0.33118
1060.78186	0.33695
1058.85317	0.34819
1056.92448	0.36512
1054.99578	0.38709
1053.06709	0.41276
1051.13839	0.43999
1049.20970	0.46552
1047.28100	0.48464
1045.35231	0.49227
1043.42362	0.48592
1041.49492	0.46720
1039.56623	0.44075
1037.63753	0.41227
1035.70884	0.38631
1033.78014	0.36502
1031.85145	0.34857
1029.92276	0.33614
1027.99406	0.32661
1026.06537	0.31889
1024.13667	0.31239
1022.20798	0.30696
1020.27928	0.30271
1018.35059	0.29953
1016.42190	0.29712
1014.49320	0.29520
1012.56451	0.29365
1010.63581	0.29236
1008.70712	0.29147
1006.77842	0.29125
1004.84973	0.29164
1002.92104	0.29207
1000.99234	0.29206
999.06365	0.29150
997.13495	0.29067
995.20626	0.29014
993.27756	0.29029
991.34887	0.29083
989.42018	0.29123
987.49148	0.29133
985.56279	0.29127
983.63409	0.29110
981.70540	0.29090
979.77670	0.29077
977.84801	0.29067
975.91932	0.29059
973.99062	0.29064
972.06193	0.29093
970.13323	0.29137
968.20454	0.29184
966.27584	0.29229
964.34715	0.29267
962.41846	0.29288
960.48976	0.29296
958.56107	0.29320
956.63237	0.29385
954.70368	0.29489
952.77498	0.29604
950.84629	0.29688
948.91760	0.29723
946.98890	0.29741
945.06021	0.29785
943.13151	0.29866
941.20282	0.29963
939.27412	0.30051
937.34543	0.30116
935.41674	0.30163
933.48804	0.30214
931.55935	0.30287
929.63065	0.30386
927.70196	0.30499
925.77326	0.30615
923.84457	0.30738
921.91588	0.30871
919.98718	0.31008
918.05849	0.31147
916.12979	0.31288
914.20110	0.31427
912.27240	0.31568
910.34371	0.31723
908.41502	0.31892
906.48632	0.32067
904.55763	0.32262
902.62893	0.32483
900.70024	0.32719
898.77154	0.32960
896.84285	0.33216
894.91415	0.33522
892.98546	0.33931
891.05677	0.34502
889.12807	0.35287
887.19938	0.36302
885.27068	0.37518
883.34199	0.38825
881.41329	0.39997
879.48460	0.40736
877.55591	0.40825
875.62721	0.40257
873.69852	0.39230
871.76982	0.38064
869.84113	0.37058
867.91243	0.36373
865.98374	0.36014
864.05505	0.35894
862.12635	0.35896
860.19766	0.35920
858.26896	0.35918
856.34027	0.35910
854.41157	0.35949
852.48288	0.36046
850.55419	0.36166
848.62549	0.36274
846.69680	0.36363
844.76810	0.36450
842.83941	0.36572
840.91071	0.36739
838.98202	0.36911
837.05333	0.37042
835.12463	0.37142
833.19594	0.37250
831.26724	0.37391
829.33855	0.37560
827.40985	0.37728
825.48116	0.37875
823.55247	0.38009
821.62377	0.38142
819.69508	0.38273
817.76638	0.38407
815.83769	0.38552
813.90899	0.38698
811.98030	0.38849
810.05161	0.39018
808.12291	0.39200
806.19422	0.39386
804.26552	0.39569
802.33683	0.39745
800.40813	0.39912
798.47944	0.40061
796.55075	0.40158
794.62205	0.40193
792.69336	0.40212
790.76466	0.40281
788.83597	0.40436
786.90727	0.40667
784.97858	0.40894
783.04989	0.41027
781.12119	0.41083
779.19250	0.41158
777.26380	0.41295
775.33511	0.41470
773.40641	0.41671
771.47772	0.41889
769.54903	0.42051
767.62033	0.42105
765.69164	0.42139
763.76294	0.42281
761.83425	0.42507
759.90555	0.42719
757.97686	0.42885
756.04817	0.42999
754.11947	0.43052
752.19078	0.43124
750.26208	0.43319
748.33339	0.43580
746.40469	0.43756
744.47600	0.43863
742.54731	0.44060
740.61861	0.44377
738.68992	0.44638
736.76122	0.44712
734.83253	0.44682
732.90383	0.44730
730.97514	0.44961
729.04645	0.45310
727.11775	0.45612
725.18906	0.45766
723.26036	0.45826
721.33167	0.45878
719.40297	0.45923
717.47428	0.45883
715.54559	0.45726
713.61689	0.45586
711.68820	0.45666
709.75950	0.45953
707.83081	0.46235
705.90211	0.46423
703.97342	0.46587
702.04472	0.46705
700.11603	0.46711
698.18734	0.46709
696.25864	0.46858
694.32995	0.47083
692.40125	0.47160
690.47256	0.47036
688.54386	0.46876
686.61517	0.46769
684.68648	0.46604
682.75778	0.46343
680.82909	0.46172
678.90039	0.46218
676.97170	0.46366
675.04300	0.46505
673.11431	0.46615
671.18562	0.46504
669.25692	0.45927
667.32823	0.45364
665.39953	0.45497
663.47084	0.45981
661.54214	0.46379
659.61345	0.46573
657.68476	0.46649
655.75606	0.46698
653.82737	0.46726
651.89867	0.46813
649.96998	0.47081
648.04128	0.47386
646.11259	0.47405
644.18390	0.47121
642.25520	0.46865
640.32651	0.46898
638.39781	0.47193
636.46912	0.47533
634.54042	0.47703
632.61173	0.47604
630.68304	0.47289
628.75434	0.46956
626.82565	0.46840
624.89695	0.46971
622.96826	0.47190
621.03956	0.47341
619.11087	0.47336
617.18218	0.47184
615.25348	0.47135
613.32479	0.47435
611.39609	0.48004
609.46740	0.48504
607.53870	0.48578
605.61001	0.48096
603.68132	0.47440
601.75262	0.47258
599.82393	0.47725
597.89523	0.48330
595.96654	0.48587
594.03784	0.48519
592.10915	0.48231
590.18046	0.47672
588.25176	0.47133
586.32307	0.47069
584.39437	0.47407
582.46568	0.47756
580.53698	0.48263
578.60829	0.49374
576.67960	0.50795
574.75090	0.51533
572.82221	0.51093
570.89351	0.49933
568.96482	0.49064
567.03612	0.49319
565.10743	0.50555
563.17874	0.51643
561.25004	0.51614
559.32135	0.50512
557.39265	0.49146
555.46396	0.48079
553.53526	0.47293
551.60657	0.46631
549.67788	0.46277
547.74918	0.46436
545.82049	0.46951
543.89179	0.47535
541.96310	0.48387
540.03440	0.49770
538.10571	0.51224
536.17702	0.51757
534.24832	0.51237
532.31963	0.50139
530.39093	0.48725
528.46224	0.47209
526.53354	0.47165
524.60485	0.50327
522.67616	0.56766
520.74746	0.63682
518.81877	0.65538
516.89007	0.59493
514.96138	0.50858
513.03268	0.44972
511.10399	0.43807
509.17530	0.49458
507.24660	0.73415
505.31791	0.79918
503.38921	0.59862
501.46052	0.46119
499.53182	0.32062
