3996.25459	0.05512
3994.32589	0.05496
3992.39720	0.05466
3990.46851	0.05468
3988.53981	0.05539
3986.61112	0.05652
3984.68242	0.05741
3982.75373	0.05752
3980.82503	0.05685
3978.89634	0.05593
3976.96765	0.05543
3975.03895	0.05565
3973.11026	0.05609
3971.18156	0.05610
3969.25287	0.05584
3967.32417	0.05600
3965.39548	0.05661
3963.46679	0.05697
3961.53809	0.05671
3959.60940	0.05637
3957.68070	0.05667
3955.75201	0.05771
3953.82331	0.05879
3951.89462	0.05903
3949.96593	0.05839
3948.03723	0.05767
3946.10854	0.05749
3944.17984	0.05774
3942.25115	0.05816
3940.32245	0.05858
3938.39376	0.05876
3936.46507	0.05853
3934.53637	0.05791
3932.60768	0.05711
3930.67898	0.05641
3928.75029	0.05590
3926.82159	0.05563
3924.89290	0.05572
3922.96421	0.05606
3921.03551	0.05645
3919.10682	0.05687
3917.17812	0.05727
3915.24943	0.05758
3913.32073	0.05769
3911.39204	0.05759
3909.46334	0.05754
3907.53465	0.05802
3905.60596	0.05910
3903.67726	0.05993
3901.74857	0.05958
3899.81987	0.05841
3897.89118	0.05743
3895.96248	0.05704
3894.03379	0.05705
3892.10510	0.05721
3890.17640	0.05746
3888.24771	0.05765
3886.31901	0.05772
3884.39032	0.05786
3882.46162	0.05807
3880.53293	0.05803
3878.60424	0.05775
3876.67554	0.05760
3874.74685	0.05779
3872.81815	0.05838
3870.88946	0.05917
3868.96076	0.05985
3867.03207	0.06047
3865.10338	0.06114
3863.17468	0.06147
3861.24599	0.06119
3859.31729	0.06056
3857.38860	0.05988
3855.45990	0.05955
3853.53121	0.06044
3851.60252	0.06201
3849.67382	0.06277
3847.74513	0.06289
3845.81643	0.06315
3843.88774	0.06401
3841.95904	0.06530
3840.03035	0.06645
3838.10166	0.06707
3836.17296	0.06723
3834.24427	0.06722
3832.31557	0.06744
3830.38688	0.06816
3828.45818	0.06918
3826.52949	0.06998
3824.60080	0.07039
3822.67210	0.07066
3820.74341	0.07102
3818.81471	0.07165
3816.88602	0.07267
3814.95732	0.07376
3813.02863	0.07451
3811.09994	0.07501
3809.17124	0.07546
3807.24255	0.07576
3805.31385	0.07582
3803.38516	0.07604
3801.45646	0.07707
3799.52777	0.07865
3797.59908	0.07964
3795.67038	0.07977
3793.74169	0.07992
3791.81299	0.08088
3789.88430	0.08259
3787.95560	0.08440
3786.02691	0.08563
3784.09822	0.08624
3782.16952	0.08684
3780.24083	0.08781
3778.31213	0.08897
3776.38344	0.09021
3774.45474	0.09135
3772.52605	0.09203
3770.59736	0.09244
3768.66866	0.09350
3766.73997	0.09538
3764.81127	0.09722
3762.88258	0.09862
3760.95388	0.09985
3759.02519	0.10111
3757.09650	0.10229
3755.16780	0.10349
3753.23911	0.10518
3751.31041	0.10746
3749.38172	0.10940
3747.45302	0.11079
3745.52433	0.11267
3743.59564	0.11517
3741.66694	0.11724
3739.73825	0.11863
3737.80955	0.11997
3735.88086	0.12184
3733.95216	0.12431
3732.02347	0.12718
3730.09478	0.13042
3728.16608	0.13392
3726.23739	0.13730
3724.30869	0.14014
3722.38000	0.14262
3720.45130	0.14517
3718.52261	0.14783
3716.59392	0.15042
3714.66522	0.15303
3712.73653	0.15606
3710.80783	0.15988
3708.87914	0.16404
3706.95044	0.16777
3705.02175	0.17105
3703.09305	0.17452
3701.16436	0.17849
3699.23567	0.18238
3697.30697	0.18563
3695.37828	0.18847
3693.44958	0.19147
3691.52089	0.19498
3689.59219	0.19861
3687.66350	0.20144
3685.73481	0.20373
3683.80611	0.20631
3681.87742	0.20915
3679.94872	0.21144
3678.02003	0.21253
3676.09133	0.21273
3674.16264	0.21332
3672.23395	0.21498
3670.30525	0.21721
3668.37656	0.21908
3666.44786	0.22019
3664.51917	0.22085
3662.59047	0.22123
3660.66178	0.22137
3658.73309	0.22140
3656.80439	0.22137
3654.87570	0.22140
3652.94700	0.22194
3651.01831	0.22309
3649.08961	0.22389
3647.16092	0.22394
3645.23223	0.22428
3643.30353	0.22491
3641.37484	0.22524
3639.44614	0.22527
3637.51745	0.22543
3635.58875	0.22587
3633.66006	0.22670
3631.73137	0.22827
3629.80267	0.23032
3627.87398	0.23154
3625.94528	0.23170
3624.01659	0.23181
3622.08789	0.23223
3620.15920	0.23320
3618.23051	0.23528
3616.30181	0.23765
3614.37312	0.23821
3612.44442	0.23661
3610.51573	0.23538
3608.58703	0.23706
3606.65834	0.24033
3604.72965	0.24229
3602.80095	0.24270
3600.87226	0.24330
3598.94356	0.24500
3597.01487	0.24704
3595.08617	0.24832
3593.15748	0.24857
3591.22879	0.24865
3589.30009	0.24942
3587.37140	0.25059
3585.44270	0.25169
3583.51401	0.25335
3581.58531	0.25562
3579.65662	0.25720
3577.72793	0.25753
3575.79923	0.25771
3573.87054	0.25864
3571.94184	0.26022
3570.01315	0.26241
3568.08445	0.26550
3566.15576	0.26882
3564.22707	0.27084
3562.29837	0.27137
3560.36968	0.27151
3558.44098	0.27211
3556.51229	0.27294
3554.58359	0.27380
3552.65490	0.27525
3550.72621	0.27703
3548.79751	0.27732
3546.86882	0.27600
3544.94012	0.27628
3543.01143	0.28017
3541.08273	0.28502
3539.15404	0.28769
3537.22535	0.28854
3535.29665	0.28991
3533.36796	0.29262
3531.43926	0.29554
3529.51057	0.29697
3527.58187	0.29591
3525.65318	0.29395
3523.72449	0.29449
3521.79579	0.29817
3519.86710	0.30159
3517.93840	0.30161
3516.00971	0.29896
3514.08101	0.29716
3512.15232	0.29886
3510.22362	0.30320
3508.29493	0.30672
3506.36624	0.30698
3504.43754	0.30399
3502.50885	0.29934
3500.58015	0.29671
3498.65146	0.29958
3496.72276	0.30685
3494.79407	0.31349
3492.86538	0.31636
3490.93668	0.31642
3489.00799	0.31573
3487.07929	0.31550
3485.15060	0.31614
3483.22190	0.31739
3481.29321	0.31900
3479.36452	0.32108
3477.43582	0.32392
3475.50713	0.32677
3473.57843	0.32753
3471.64974	0.32592
3469.72104	0.32501
3467.79235	0.32600
3465.86366	0.32514
3463.93496	0.32021
3462.00627	0.31550
3460.07757	0.31562
3458.14888	0.31917
3456.22018	0.32184
3454.29149	0.32184
3452.36280	0.32042
3450.43410	0.31945
3448.50541	0.31993
3446.57671	0.32148
3444.64802	0.32297
3442.71932	0.32450
3440.79063	0.32772
3438.86194	0.33297
3436.93324	0.33774
3435.00455	0.33957
3433.07585	0.33812
3431.14716	0.33435
3429.21846	0.32957
3427.28977	0.32572
3425.36108	0.32526
3423.43238	0.32977
3421.50369	0.33782
3419.57499	0.34531
3417.64630	0.34887
3415.71760	0.34734
3413.78891	0.34122
3411.86022	0.33365
3409.93152	0.32916
3408.00283	0.32905
3406.07413	0.33087
3404.14544	0.33253
3402.21674	0.33341
3400.28805	0.33393
3398.35936	0.33519
3396.43066	0.33651
3394.50197	0.33612
3392.57327	0.33624
3390.64458	0.34018
3388.71588	0.34504
3386.78719	0.34509
3384.85850	0.34093
3382.92980	0.33823
3381.00111	0.33986
3379.07241	0.34339
3377.14372	0.34514
3375.21502	0.34368
3373.28633	0.33976
3371.35764	0.33473
3369.42894	0.33066
3367.50025	0.32981
3365.57155	0.33230
3363.64286	0.33576
3361.71416	0.33777
3359.78547	0.33716
3357.85678	0.33417
3355.92808	0.33121
3353.99939	0.33166
3352.07069	0.33572
3350.14200	0.33930
3348.21330	0.33898
3346.28461	0.33632
3344.35592	0.33494
3342.42722	0.33579
3340.49853	0.33751
3338.56983	0.33906
3336.64114	0.34014
3334.71244	0.34013
3332.78375	0.33861
3330.85506	0.33653
3328.92636	0.33498
3326.99767	0.33337
3325.06897	0.33084
3323.14028	0.32836
3321.21158	0.32727
3319.28289	0.32745
3317.35420	0.32765
3315.42550	0.32698
3313.49681	0.32616
3311.56811	0.32722
3309.63942	0.33088
3307.71072	0.33494
3305.78203	0.33632
3303.85333	0.33438
3301.92464	0.33134
3299.99595	0.32995
3298.06725	0.33136
3296.13856	0.33497
3294.20986	0.33941
3292.28117	0.34297
3290.35247	0.34386
3288.42378	0.34182
3286.49509	0.33836
3284.56639	0.33458
3282.63770	0.33080
3280.70900	0.32868
3278.78031	0.32989
3276.85161	0.33303
3274.92292	0.33488
3272.99423	0.33369
3271.06553	0.32994
3269.13684	0.32614
3267.20814	0.32529
3265.27945	0.32745
3263.35075	0.32990
3261.42206	0.33178
3259.49337	0.33420
3257.56467	0.33604
3255.63598	0.33473
3253.70728	0.33041
3251.77859	0.32564
3249.84989	0.32267
3247.92120	0.32205
3245.99251	0.32223
3244.06381	0.32149
3242.13512	0.32058
3240.20642	0.32090
3238.27773	0.32157
3236.34903	0.32135
3234.42034	0.32070
3232.49165	0.31970
3230.56295	0.31721
3228.63426	0.31380
3226.70556	0.31237
3224.77687	0.31455
3222.84817	0.31808
3220.91948	0.31924
3218.99079	0.31703
3217.06209	0.31364
3215.13340	0.31155
3213.20470	0.31088
3211.27601	0.30991
3209.34731	0.30795
3207.41862	0.30657
3205.48993	0.30673
3203.56123	0.30705
3201.63254	0.30628
3199.70384	0.30502
3197.77515	0.30390
3195.84645	0.30231
3193.91776	0.29979
3191.98907	0.29701
3190.06037	0.29468
3188.13168	0.29273
3186.20298	0.29118
3184.27429	0.29060
3182.34559	0.29077
3180.41690	0.29062
3178.48821	0.29013
3176.55951	0.29020
3174.63082	0.29063
3172.70212	0.29015
3170.77343	0.28810
3168.84473	0.28526
3166.91604	0.28299
3164.98735	0.28175
3163.05865	0.28083
3161.12996	0.27968
3159.20126	0.27873
3157.27257	0.27854
3155.34387	0.27903
3153.41518	0.27962
3151.48649	0.27983
3149.55779	0.27960
3147.62910	0.27908
3145.70040	0.27814
3143.77171	0.27635
3141.84301	0.27391
3139.91432	0.27182
3137.98563	0.27063
3136.05693	0.26972
3134.12824	0.26850
3132.19954	0.26739
3130.27085	0.26691
3128.34215	0.26674
3126.41346	0.26622
3124.48477	0.26511
3122.55607	0.26378
3120.62738	0.26281
3118.69868	0.26252
3116.76999	0.26258
3114.84129	0.26222
3112.91260	0.26101
3110.98390	0.25933
3109.05521	0.25802
3107.12652	0.25758
3105.19782	0.25785
3103.26913	0.25847
3101.34043	0.25900
3099.41174	0.25895
3097.48304	0.25811
3095.55435	0.25693
3093.62566	0.25598
3091.69696	0.25541
3089.76827	0.25518
3087.83957	0.25521
3085.91088	0.25518
3083.98218	0.25476
3082.05349	0.25421
3080.12480	0.25395
3078.19610	0.25374
3076.26741	0.25323
3074.33871	0.25275
3072.41002	0.25269
3070.48132	0.25272
3068.55263	0.25226
3066.62394	0.25131
3064.69524	0.25032
3062.76655	0.24967
3060.83785	0.24943
3058.90916	0.24942
3056.98046	0.24944
3055.05177	0.24935
3053.12308	0.24908
3051.19438	0.24872
3049.26569	0.24848
3047.33699	0.24854
3045.40830	0.24872
3043.47960	0.24851
3041.55091	0.24777
3039.62222	0.24693
3037.69352	0.24630
3035.76483	0.24577
3033.83613	0.24535
3031.90744	0.24546
3029.97874	0.24625
3028.05005	0.24721
3026.12136	0.24785
3024.19266	0.24830
3022.26397	0.24904
3020.33527	0.25031
3018.40658	0.25194
3016.47788	0.25369
3014.54919	0.25536
3012.62050	0.25666
3010.69180	0.25741
3008.76311	0.25790
3006.83441	0.25854
3004.90572	0.25918
3002.97702	0.25930
3001.04833	0.25878
2999.11964	0.25809
2997.19094	0.25786
2995.26225	0.25850
2993.33355	0.26018
2991.40486	0.26288
2989.47616	0.26649
2987.54747	0.27056
2985.61878	0.27447
2983.69008	0.27800
2981.76139	0.28153
2979.83269	0.28520
2977.90400	0.28861
2975.97530	0.29135
2974.04661	0.29342
2972.11792	0.29509
2970.18922	0.29667
2968.26053	0.29842
2966.33183	0.30041
2964.40314	0.30248
2962.47444	0.30447
2960.54575	0.30638
2958.61706	0.30807
2956.68836	0.30882
2954.75967	0.30788
2952.83097	0.30561
2950.90228	0.30353
2948.97358	0.30295
2947.04489	0.30387
2945.11620	0.30590
2943.18750	0.30935
2941.25881	0.31451
2939.33011	0.32037
2937.40142	0.32557
2935.47272	0.33022
2933.54403	0.33489
2931.61534	0.33874
2929.68664	0.34070
2927.75795	0.34133
2925.82925	0.34121
2923.90056	0.33895
2921.97186	0.33345
2920.04317	0.32622
2918.11448	0.31909
2916.18578	0.31203
2914.25709	0.30494
2912.32839	0.29864
2910.39970	0.29352
2908.47100	0.28893
2906.54231	0.28438
2904.61361	0.27993
2902.68492	0.27580
2900.75623	0.27189
2898.82753	0.26778
2896.89884	0.26313
2894.97014	0.25820
2893.04145	0.25364
2891.11275	0.24974
2889.18406	0.24628
2887.25537	0.24306
2885.32667	0.24011
2883.39798	0.23763
2881.46928	0.23580
2879.54059	0.23453
2877.61189	0.23362
2875.68320	0.23293
2873.75451	0.23211
2871.82581	0.23080
2869.89712	0.22932
2867.96842	0.22847
2866.03973	0.22860
2864.11103	0.22957
2862.18234	0.23127
2860.25365	0.23335
2858.32495	0.23480
2856.39626	0.23450
2854.46756	0.23205
2852.53887	0.22759
2850.61017	0.22117
2848.68148	0.21285
2846.75279	0.20342
2844.82409	0.19412
2842.89540	0.18577
2840.96670	0.17858
2839.03801	0.17253
2837.10931	0.16761
2835.18062	0.16372
2833.25193	0.16046
2831.32323	0.15735
2829.39454	0.15429
2827.46584	0.15138
2825.53715	0.14863
2823.60845	0.14593
2821.67976	0.14332
2819.75107	0.14101
2817.82237	0.13897
2815.89368	0.13701
2813.96498	0.13498
2812.03629	0.13293
2810.10759	0.13094
2808.17890	0.12906
2806.25021	0.12723
2804.32151	0.12539
2802.39282	0.12347
2800.46412	0.12150
2798.53543	0.11960
2796.60673	0.11788
2794.67804	0.11630
2792.74935	0.11465
2790.82065	0.11288
2788.89196	0.11123
2786.96326	0.10995
2785.03457	0.10894
2783.10587	0.10784
2781.17718	0.10645
2779.24849	0.10497
2777.31979	0.10360
2775.39110	0.10237
2773.46240	0.10119
2771.53371	0.10005
2769.60501	0.09892
2767.67632	0.09778
2765.74763	0.09671
2763.81893	0.09578
2761.89024	0.09491
2759.96154	0.09400
2758.03285	0.09307
2756.10415	0.09211
2754.17546	0.09114
2752.24677	0.09020
2750.31807	0.08934
2748.38938	0.08856
2746.46068	0.08779
2744.53199	0.08696
2742.60329	0.08600
2740.67460	0.08499
2738.74591	0.08405
2736.81721	0.08324
2734.88852	0.08247
2732.95982	0.08162
2731.03113	0.08070
2729.10243	0.07980
2727.17374	0.07896
2725.24505	0.07812
2723.31635	0.07719
2721.38766	0.07620
2719.45896	0.07528
2717.53027	0.07449
2715.60157	0.07377
2713.67288	0.07304
2711.74419	0.07232
2709.81549	0.07167
2707.88680	0.07105
2705.95810	0.07035
2704.02941	0.06959
2702.10071	0.06892
2700.17202	0.06839
2698.24332	0.06786
2696.31463	0.06719
2694.38594	0.06640
2692.45724	0.06559
2690.52855	0.06488
2688.59985	0.06435
2686.67116	0.06395
2684.74246	0.06354
2682.81377	0.06307
2680.88508	0.06253
2678.95638	0.06195
2677.02769	0.06137
2675.09899	0.06089
2673.17030	0.06056
2671.24160	0.06031
2669.31291	0.06000
2667.38422	0.05955
2665.45552	0.05901
2663.52683	0.05847
2661.59813	0.05802
2659.66944	0.05775
2657.74074	0.05758
2655.81205	0.05732
2653.88336	0.05690
2651.95466	0.05640
2650.02597	0.05597
2648.09727	0.05564
2646.16858	0.05536
2644.23988	0.05509
2642.31119	0.05486
2640.38250	0.05466
2638.45380	0.05449
2636.52511	0.05441
2634.59641	0.05436
2632.66772	0.05425
2630.73902	0.05408
2628.81033	0.05394
2626.88164	0.05387
2624.95294	0.05382
2623.02425	0.05372
2621.09555	0.05358
2619.16686	0.05347
2617.23816	0.05341
2615.30947	0.05337
2613.38078	0.05329
2611.45208	0.05321
2609.52339	0.05317
2607.59469	0.05316
2605.66600	0.05315
2603.73730	0.05315
2601.80861	0.05315
2599.87992	0.05314
2597.95122	0.05312
2596.02253	0.05313
2594.09383	0.05321
2592.16514	0.05334
2590.23644	0.05349
2588.30775	0.05364
2586.37906	0.05380
2584.45036	0.05397
2582.52167	0.05415
2580.59297	0.05435
2578.66428	0.05458
2576.73558	0.05482
2574.80689	0.05499
2572.87820	0.05515
2570.94950	0.05538
2569.02081	0.05571
2567.09211	0.05613
2565.16342	0.05655
2563.23472	0.05693
2561.30603	0.05724
2559.37734	0.05751
2557.44864	0.05778
2555.51995	0.05809
2553.59125	0.05847
2551.66256	0.05892
2549.73386	0.05937
2547.80517	0.05970
2545.87648	0.05992
2543.94778	0.06014
2542.01909	0.06042
2540.09039	0.06073
2538.16170	0.06103
2536.23300	0.06135
2534.30431	0.06173
2532.37562	0.06212
2530.44692	0.06246
2528.51823	0.06276
2526.58953	0.06304
2524.66084	0.06334
2522.73214	0.06369
2520.80345	0.06411
2518.87476	0.06457
2516.94606	0.06501
2515.01737	0.06540
2513.08867	0.06577
2511.15998	0.06613
2509.23128	0.06654
2507.30259	0.06699
2505.37389	0.06741
2503.44520	0.06779
2501.51651	0.06814
2499.58781	0.06842
2497.65912	0.06866
2495.73042	0.06897
2493.80173	0.06939
2491.87303	0.06979
2489.94434	0.07011
2488.01565	0.07040
2486.08695	0.07071
2484.15826	0.07103
2482.22956	0.07136
2480.30087	0.07170
2478.37217	0.07204
2476.44348	0.07234
2474.51479	0.07264
2472.58609	0.07303
2470.65740	0.07349
2468.72870	0.07394
2466.80001	0.07433
2464.87131	0.07465
2462.94262	0.07493
2461.01393	0.07520
2459.08523	0.07550
2457.15654	0.07588
2455.22784	0.07634
2453.29915	0.07683
2451.37045	0.07729
2449.44176	0.07773
2447.51307	0.07815
2445.58437	0.07858
2443.65568	0.07903
2441.72698	0.07945
2439.79829	0.07986
2437.86959	0.08031
2435.94090	0.08079
2434.01221	0.08128
2432.08351	0.08181
2430.15482	0.08242
2428.22612	0.08309
2426.29743	0.08374
2424.36873	0.08430
2422.44004	0.08479
2420.51135	0.08528
2418.58265	0.08580
2416.65396	0.08634
2414.72526	0.08692
2412.79657	0.08751
2410.86787	0.08807
2408.93918	0.08857
2407.01049	0.08903
2405.08179	0.08946
2403.15310	0.08989
2401.22440	0.09032
2399.29571	0.09077
2397.36701	0.09125
2395.43832	0.09174
2393.50963	0.09222
2391.58093	0.09271
2389.65224	0.09324
2387.72354	0.09390
2385.79485	0.09471
2383.86615	0.09564
2381.93746	0.09671
2380.00877	0.09799
2378.08007	0.09944
2376.15138	0.10092
2374.22268	0.10239
2372.29399	0.10392
2370.36529	0.10552
2368.43660	0.10716
2366.50791	0.10902
2364.57921	0.11085
2362.65052	0.11202
2360.72182	0.11273
2358.79313	0.11363
2356.86443	0.11419
2354.93574	0.11358
2353.00705	0.11230
2351.07835	0.11139
2349.14966	0.11133
2347.22096	0.11229
2345.29227	0.11421
2343.36357	0.11627
2341.43488	0.11732
2339.50619	0.11758
2337.57749	0.11798
2335.64880	0.11877
2333.72010	0.11950
2331.79141	0.11964
2329.86271	0.11924
2327.93402	0.11894
2326.00533	0.11910
2324.07663	0.11941
2322.14794	0.11955
2320.21924	0.11963
2318.29055	0.11981
2316.36185	0.12012
2314.43316	0.12044
2312.50447	0.12066
2310.57577	0.12077
2308.64708	0.12087
2306.71838	0.12109
2304.78969	0.12150
2302.86099	0.12203
2300.93230	0.12258
2299.00360	0.12304
2297.07491	0.12343
2295.14622	0.12383
2293.21752	0.12430
2291.28883	0.12485
2289.36013	0.12544
2287.43144	0.12602
2285.50274	0.12659
2283.57405	0.12717
2281.64536	0.12778
2279.71666	0.12840
2277.78797	0.12905
2275.85927	0.12972
2273.93058	0.13043
2272.00188	0.13118
2270.07319	0.13187
2268.14450	0.13248
2266.21580	0.13306
2264.28711	0.13367
2262.35841	0.13433
2260.42972	0.13499
2258.50102	0.13563
2256.57233	0.13627
2254.64364	0.13692
2252.71494	0.13756
2250.78625	0.13816
2248.85755	0.13872
2246.92886	0.13928
2245.00016	0.13987
2243.07147	0.14052
2241.14278	0.14119
2239.21408	0.14180
2237.28539	0.14237
2235.35669	0.14295
2233.42800	0.14359
2231.49930	0.14422
2229.57061	0.14478
2227.64192	0.14530
2225.71322	0.14580
2223.78453	0.14626
2221.85583	0.14673
2219.92714	0.14729
2217.99844	0.14797
2216.06975	0.14867
2214.14106	0.14927
2212.21236	0.14974
2210.28367	0.15021
2208.35497	0.15075
2206.42628	0.15136
2204.49758	0.15193
2202.56889	0.15243
2200.64020	0.15288
2198.71150	0.15332
2196.78281	0.15377
2194.85411	0.15424
2192.92542	0.15470
2190.99672	0.15509
2189.06803	0.15542
2187.13934	0.15578
2185.21064	0.15611
2183.28195	0.15638
2181.35325	0.15664
2179.42456	0.15698
2177.49586	0.15737
2175.56717	0.15773
2173.63848	0.15811
2171.70978	0.15856
2169.78109	0.15901
2167.85239	0.15931
2165.92370	0.15946
2163.99500	0.15958
2162.06631	0.15974
2160.13762	0.15993
2158.20892	0.16016
2156.28023	0.16045
2154.35153	0.16073
2152.42284	0.16093
2150.49414	0.16108
2148.56545	0.16125
2146.63676	0.16143
2144.70806	0.16157
2142.77937	0.16164
2140.85067	0.16169
2138.92198	0.16170
2136.99328	0.16168
2135.06459	0.16164
2133.13590	0.16160
2131.20720	0.16152
2129.27851	0.16138
2127.34981	0.16122
2125.42112	0.16107
2123.49242	0.16095
2121.56373	0.16087
2119.63504	0.16074
2117.70634	0.16056
2115.77765	0.16037
2113.84895	0.16020
2111.92026	0.16006
2109.99156	0.15988
2108.06287	0.15962
2106.13417	0.15930
2104.20548	0.15898
2102.27679	0.15866
2100.34809	0.15834
2098.41940	0.15799
2096.49070	0.15769
2094.56201	0.15746
2092.63331	0.15724
2090.70462	0.15691
2088.77593	0.15650
2086.84723	0.15612
2084.91854	0.15576
2082.98984	0.15531
2081.06115	0.15474
2079.13245	0.15410
2077.20376	0.15349
2075.27507	0.15292
2073.34637	0.15242
2071.41768	0.15200
2069.48898	0.15153
2067.56029	0.15092
2065.63159	0.15022
2063.70290	0.14958
2061.77421	0.14902
2059.84551	0.14845
2057.91682	0.14780
2055.98812	0.14715
2054.05943	0.14659
2052.13073	0.14612
2050.20204	0.14560
2048.27335	0.14493
2046.34465	0.14415
2044.41596	0.14340
2042.48726	0.14272
2040.55857	0.14208
2038.62987	0.14149
2036.70118	0.14094
2034.77249	0.14037
2032.84379	0.13968
2030.91510	0.13884
2028.98640	0.13797
2027.05771	0.13716
2025.12901	0.13637
2023.20032	0.13554
2021.27163	0.13472
2019.34293	0.13397
2017.41424	0.13327
2015.48554	0.13256
2013.55685	0.13187
2011.62815	0.13122
2009.69946	0.13064
2007.77077	0.13005
2005.84207	0.12940
2003.91338	0.12863
2001.98468	0.12779
2000.05599	0.12695
1998.12729	0.12616
1996.19860	0.12543
1994.26991	0.12469
1992.34121	0.12394
1990.41252	0.12326
1988.48382	0.12268
1986.55513	0.12211
1984.62643	0.12145
1982.69774	0.12073
1980.76905	0.12007
1978.84035	0.11948
1976.91166	0.11889
1974.98296	0.11826
1973.05427	0.11760
1971.12557	0.11697
1969.19688	0.11633
1967.26819	0.11563
1965.33949	0.11496
1963.41080	0.11448
1961.48210	0.11414
1959.55341	0.11375
1957.62471	0.11320
1955.69602	0.11257
1953.76733	0.11198
1951.83863	0.11144
1949.90994	0.11095
1947.98124	0.11057
1946.05255	0.11022
1944.12385	0.10979
1942.19516	0.10930
1940.26647	0.10895
1938.33777	0.10877
1936.40908	0.10869
1934.48038	0.10866
1932.55169	0.10861
1930.62299	0.10851
1928.69430	0.10833
1926.76561	0.10813
1924.83691	0.10795
1922.90822	0.10778
1920.97952	0.10763
1919.05083	0.10748
1917.12213	0.10726
1915.19344	0.10699
1913.26475	0.10668
1911.33605	0.10631
1909.40736	0.10587
1907.47866	0.10550
1905.54997	0.10524
1903.62127	0.10502
1901.69258	0.10477
1899.76388	0.10453
1897.83519	0.10433
1895.90650	0.10415
1893.97780	0.10401
1892.04911	0.10396
1890.12041	0.10398
1888.19172	0.10399
1886.26302	0.10397
1884.33433	0.10394
1882.40564	0.10390
1880.47694	0.10389
1878.54825	0.10393
1876.61955	0.10404
1874.69086	0.10424
1872.76216	0.10447
1870.83347	0.10469
1868.90478	0.10488
1866.97608	0.10498
1865.04739	0.10503
1863.11869	0.10516
1861.19000	0.10540
1859.26130	0.10573
1857.33261	0.10613
1855.40392	0.10654
1853.47522	0.10689
1851.54653	0.10720
1849.61783	0.10751
1847.68914	0.10785
1845.76044	0.10820
1843.83175	0.10849
1841.90306	0.10881
1839.97436	0.10929
1838.04567	0.10992
1836.11697	0.11059
1834.18828	0.11125
1832.25958	0.11189
1830.33089	0.11252
1828.40220	0.11311
1826.47350	0.11367
1824.54481	0.11433
1822.61611	0.11509
1820.68742	0.11586
1818.75872	0.11663
1816.83003	0.11743
1814.90134	0.11825
1812.97264	0.11912
1811.04395	0.12003
1809.11525	0.12102
1807.18656	0.12210
1805.25786	0.12319
1803.32917	0.12428
1801.40048	0.12548
1799.47178	0.12680
1797.54309	0.12814
1795.61439	0.12945
1793.68570	0.13081
1791.75700	0.13234
1789.82831	0.13392
1787.89962	0.13546
1785.97092	0.13711
1784.04223	0.13893
1782.11353	0.14080
1780.18484	0.14269
1778.25614	0.14458
1776.32745	0.14648
1774.39876	0.14869
1772.47006	0.15151
1770.54137	0.15469
1768.61267	0.15803
1766.68398	0.16169
1764.75528	0.16611
1762.82659	0.17186
1760.89790	0.17910
1758.96920	0.18744
1757.04051	0.19677
1755.11181	0.20680
1753.18312	0.21669
1751.25442	0.22643
1749.32573	0.23631
1747.39704	0.24473
1745.46834	0.25018
1743.53965	0.25286
1741.61095	0.25374
1739.68226	0.25399
1737.75356	0.25389
1735.82487	0.25300
1733.89618	0.25146
1731.96748	0.25024
1730.03879	0.24963
1728.11009	0.24922
1726.18140	0.24880
1724.25270	0.24845
1722.32401	0.24812
1720.39532	0.24754
1718.46662	0.24651
1716.53793	0.24536
1714.60923	0.24469
1712.68054	0.24456
1710.75184	0.24470
1708.82315	0.24490
1706.89446	0.24522
1704.96576	0.24582
1703.03707	0.24681
1701.10837	0.24821
1699.17968	0.25009
1697.25098	0.25249
1695.32229	0.25512
1693.39359	0.25723
1691.46490	0.25849
1689.53621	0.25945
1687.60751	0.26085
1685.67882	0.26287
1683.75012	0.26467
1681.82143	0.26546
1679.89273	0.26594
1677.96404	0.26664
1676.03535	0.26753
1674.10665	0.26877
1672.17796	0.27034
1670.24926	0.27169
1668.32057	0.27269
1666.39187	0.27388
1664.46318	0.27548
1662.53449	0.27739
1660.60579	0.27944
1658.67710	0.28141
1656.74840	0.28294
1654.81971	0.28328
1652.89101	0.28210
1650.96232	0.28053
1649.03363	0.27805
1647.10493	0.27490
1645.17624	0.27423
1643.24754	0.27643
1641.31885	0.27866
1639.39015	0.27890
1637.46146	0.27617
1635.53277	0.27230
1633.60407	0.27111
1631.67538	0.27205
1629.74668	0.27316
1627.81799	0.27367
1625.88929	0.27300
1623.96060	0.27108
1622.03191	0.26879
1620.10321	0.26633
1618.17452	0.26288
1616.24582	0.25851
1614.31713	0.25476
1612.38843	0.25193
1610.45974	0.24915
1608.53105	0.24601
1606.60235	0.24269
1604.67366	0.23961
1602.74496	0.23721
1600.81627	0.23549
1598.88757	0.23390
1596.95888	0.23206
1595.03019	0.23013
1593.10149	0.22851
1591.17280	0.22737
1589.24410	0.22675
1587.31541	0.22646
1585.38671	0.22613
1583.45802	0.22563
1581.52933	0.22508
1579.60063	0.22474
1577.67194	0.22507
1575.74324	0.22629
1573.81455	0.22745
1571.88585	0.22775
1569.95716	0.22759
1568.02847	0.22784
1566.09977	0.22863
1564.17108	0.22914
1562.24238	0.22869
1560.31369	0.22779
1558.38499	0.22899
1556.45630	0.23255
1554.52761	0.23498
1552.59891	0.23556
1550.67022	0.23506
1548.74152	0.23418
1546.81283	0.23302
1544.88413	0.23155
1542.95544	0.23008
1541.02675	0.22871
1539.09805	0.22740
1537.16936	0.22633
1535.24066	0.22539
1533.31197	0.22441
1531.38327	0.22325
1529.45458	0.22153
1527.52589	0.21917
1525.59719	0.21695
1523.66850	0.21601
1521.73980	0.21616
1519.81111	0.21568
1517.88241	0.21386
1515.95372	0.21185
1514.02503	0.21053
1512.09633	0.20954
1510.16764	0.20811
1508.23894	0.20601
1506.31025	0.20473
1504.38155	0.20499
1502.45286	0.20550
1500.52416	0.20574
1498.59547	0.20607
1496.66678	0.20702
1494.73808	0.20837
1492.80939	0.20969
1490.88069	0.21086
1488.95200	0.21185
1487.02330	0.21266
1485.09461	0.21341
1483.16592	0.21421
1481.23722	0.21511
1479.30853	0.21614
1477.37983	0.21749
1475.45114	0.21971
1473.52244	0.22398
1471.59375	0.23044
1469.66506	0.23690
1467.73636	0.24176
1465.80767	0.24488
1463.87897	0.24676
1461.95028	0.24834
1460.02158	0.25020
1458.09289	0.25202
1456.16420	0.25260
1454.23550	0.25163
1452.30681	0.24989
1450.37811	0.24749
1448.44942	0.24438
1446.52072	0.24109
1444.59203	0.23826
1442.66334	0.23611
1440.73464	0.23458
1438.80595	0.23342
1436.87725	0.23248
1434.94856	0.23196
1433.01986	0.23195
1431.09117	0.23201
1429.16248	0.23190
1427.23378	0.23185
1425.30509	0.23197
1423.37639	0.23207
1421.44770	0.23223
1419.51900	0.23298
1417.59031	0.23429
1415.66162	0.23527
1413.73292	0.23552
1411.80423	0.23527
1409.87553	0.23480
1407.94684	0.23434
1406.01814	0.23401
1404.08945	0.23374
1402.16076	0.23324
1400.23206	0.23223
1398.30337	0.23077
1396.37467	0.22946
1394.44598	0.22912
1392.51728	0.22969
1390.58859	0.23049
1388.65990	0.23127
1386.73120	0.23238
1384.80251	0.23382
1382.87381	0.23503
1380.94512	0.23563
1379.01642	0.23546
1377.08773	0.23431
1375.15904	0.23214
1373.23034	0.22958
1371.30165	0.22733
1369.37295	0.22540
1367.44426	0.22363
1365.51556	0.22203
1363.58687	0.22064
1361.65818	0.21958
1359.72948	0.21898
1357.80079	0.21874
1355.87209	0.21864
1353.94340	0.21858
1352.01470	0.21862
1350.08601	0.21882
1348.15732	0.21914
1346.22862	0.21948
1344.29993	0.21977
1342.37123	0.21998
1340.44254	0.22013
1338.51384	0.22028
1336.58515	0.22047
1334.65646	0.22068
1332.72776	0.22090
1330.79907	0.22124
1328.87037	0.22176
1326.94168	0.22228
1325.01298	0.22262
1323.08429	0.22281
1321.15560	0.22296
1319.22690	0.22303
1317.29821	0.22291
1315.36951	0.22247
1313.44082	0.22178
1311.51212	0.22117
1309.58343	0.22091
1307.65474	0.22084
1305.72604	0.22067
1303.79735	0.22034
1301.86865	0.22005
1299.93996	0.21996
1298.01126	0.22001
1296.08257	0.21998
1294.15387	0.21982
1292.22518	0.21980
1290.29649	0.22015
1288.36779	0.22073
1286.43910	0.22127
1284.51040	0.22176
1282.58171	0.22249
1280.65301	0.22359
1278.72432	0.22483
1276.79563	0.22577
1274.86693	0.22609
1272.93824	0.22585
1271.00954	0.22541
1269.08085	0.22510
1267.15215	0.22483
1265.22346	0.22436
1263.29477	0.22370
1261.36607	0.22311
1259.43738	0.22284
1257.50868	0.22287
1255.57999	0.22305
1253.65129	0.22321
1251.72260	0.22328
1249.79391	0.22330
1247.86521	0.22338
1245.93652	0.22359
1244.00782	0.22385
1242.07913	0.22400
1240.15043	0.22399
1238.22174	0.22385
1236.29305	0.22362
1234.36435	0.22327
1232.43566	0.22278
1230.50696	0.22214
1228.57827	0.22141
1226.64957	0.22074
1224.72088	0.22027
1222.79219	0.22009
1220.86349	0.22003
1218.93480	0.21988
1217.00610	0.21952
1215.07741	0.21895
1213.14871	0.21825
1211.22002	0.21773
1209.29133	0.21786
1207.36263	0.21857
1205.43394	0.21921
1203.50524	0.21935
1201.57655	0.21920
1199.64785	0.21927
1197.71916	0.21982
1195.79047	0.22072
1193.86177	0.22177
1191.93308	0.22280
1190.00438	0.22360
1188.07569	0.22414
1186.14699	0.22466
1184.21830	0.22545
1182.28961	0.22656
1180.36091	0.22783
1178.43222	0.22906
1176.50352	0.22998
1174.57483	0.23043
1172.64613	0.23072
1170.71744	0.23124
1168.78875	0.23191
1166.86005	0.23228
1164.93136	0.23225
1163.00266	0.23210
1161.07397	0.23180
1159.14527	0.23112
1157.21658	0.23013
1155.28789	0.22917
1153.35919	0.22833
1151.43050	0.22750
1149.50180	0.22676
1147.57311	0.22628
1145.64441	0.22587
1143.71572	0.22516
1141.78703	0.22397
1139.85833	0.22228
1137.92964	0.22024
1136.00094	0.21816
1134.07225	0.21638
1132.14355	0.21503
1130.21486	0.21418
1128.28617	0.21400
1126.35747	0.21463
1124.42878	0.21586
1122.50008	0.21712
1120.57139	0.21781
1118.64269	0.21783
1116.71400	0.21767
1114.78531	0.21789
1112.85661	0.21868
1110.92792	0.22000
1108.99922	0.22164
1107.07053	0.22338
1105.14183	0.22537
1103.21314	0.22814
1101.28444	0.23209
1099.35575	0.23721
1097.42706	0.24314
1095.49836	0.24940
1093.56967	0.25556
1091.64097	0.26116
1089.71228	0.26560
1087.78358	0.26828
1085.85489	0.26876
1083.92620	0.26709
1081.99750	0.26390
1080.06881	0.25979
1078.14011	0.25486
1076.21142	0.24938
1074.28272	0.24436
1072.35403	0.24060
1070.42534	0.23803
1068.49664	0.23614
1066.56795	0.23493
1064.63925	0.23499
1062.71056	0.23702
1060.78186	0.24139
1058.85317	0.24838
1056.92448	0.25852
1054.99578	0.27225
1053.06709	0.28911
1051.13839	0.30767
1049.20970	0.32576
1047.28100	0.34010
1045.35231	0.34665
1043.42362	0.34313
1041.49492	0.33074
1039.56623	0.31299
1037.63753	0.29376
1035.70884	0.27596
1033.78014	0.26110
1031.85145	0.24969
1029.92276	0.24139
1027.99406	0.23528
1026.06537	0.23054
1024.13667	0.22684
1022.20798	0.22397
1020.27928	0.22160
1018.35059	0.21953
1016.42190	0.21782
1014.49320	0.21651
1012.56451	0.21553
1010.63581	0.21482
1008.70712	0.21437
1006.77842	0.21426
1004.84973	0.21446
1002.92104	0.21463
1000.99234	0.21450
999.06365	0.21422
997.13495	0.21414
995.20626	0.21438
993.27756	0.21482
991.34887	0.21527
989.42018	0.21571
987.49148	0.21616
985.56279	0.21657
983.63409	0.21688
981.70540	0.21714
979.77670	0.21744
977.84801	0.21781
975.91932	0.21823
973.99062	0.21849
972.06193	0.21843
970.13323	0.21829
968.20454	0.21842
966.27584	0.21877
964.34715	0.21902
962.41846	0.21915
960.48976	0.21938
958.56107	0.21967
956.63237	0.21986
954.70368	0.22008
952.77498	0.22053
950.84629	0.22106
948.91760	0.22139
946.98890	0.22155
945.06021	0.22176
943.13151	0.22216
941.20282	0.22272
939.27412	0.22334
937.34543	0.22382
935.41674	0.22406
933.48804	0.22426
931.55935	0.22464
929.63065	0.22530
927.70196	0.22617
925.77326	0.22702
923.84457	0.22764
921.91588	0.22810
919.98718	0.22873
918.05849	0.22969
916.12979	0.23074
914.20110	0.23166
912.27240	0.23243
910.34371	0.23324
908.41502	0.23425
906.48632	0.23545
904.55763	0.23670
902.62893	0.23800
900.70024	0.23946
898.77154	0.24101
896.84285	0.24260
894.91415	0.24453
892.98546	0.24716
891.05677	0.25053
889.12807	0.25468
887.19938	0.25992
885.27068	0.26655
883.34199	0.27415
881.41329	0.28138
879.48460	0.28643
877.55591	0.28781
875.62721	0.28519
873.69852	0.27984
871.76982	0.27378
869.84113	0.26851
867.91243	0.26468
865.98374	0.26247
864.05505	0.26152
862.12635	0.26117
860.19766	0.26086
858.26896	0.26057
856.34027	0.26075
854.41157	0.26166
852.48288	0.26278
850.55419	0.26341
848.62549	0.26352
846.69680	0.26354
844.76810	0.26393
842.83941	0.26492
840.91071	0.26620
838.98202	0.26718
837.05333	0.26784
835.12463	0.26872
833.19594	0.27006
831.26724	0.27156
829.33855	0.27290
827.40985	0.27399
825.48116	0.27476
823.55247	0.27512
821.62377	0.27540
819.69508	0.27619
817.76638	0.27761
815.83769	0.27919
813.90899	0.28067
811.98030	0.28221
810.05161	0.28391
808.12291	0.28569
806.19422	0.28757
804.26552	0.28948
802.33683	0.29091
800.40813	0.29145
798.47944	0.29143
796.55075	0.29146
794.62205	0.29185
792.69336	0.29250
790.76466	0.29332
788.83597	0.29442
786.90727	0.29601
784.97858	0.29797
783.04989	0.29999
781.12119	0.30188
779.19250	0.30351
777.26380	0.30463
775.33511	0.30522
773.40641	0.30583
771.47772	0.30689
769.54903	0.30818
767.62033	0.30917
765.69164	0.30980
763.76294	0.31048
761.83425	0.31153
759.90555	0.31295
757.97686	0.31455
756.04817	0.31625
754.11947	0.31819
752.19078	0.32041
750.26208	0.32251
748.33339	0.32391
746.40469	0.32461
744.47600	0.32538
742.54731	0.32687
740.61861	0.32878
738.68992	0.33035
736.76122	0.33145
734.83253	0.33263
732.90383	0.33431
730.97514	0.33635
729.04645	0.33851
727.11775	0.34072
725.18906	0.34299
723.26036	0.34490
721.33167	0.34551
719.40297	0.34443
717.47428	0.34298
715.54559	0.34304
713.61689	0.34479
711.68820	0.34699
709.75950	0.34883
707.83081	0.35044
705.90211	0.35199
703.97342	0.35357
702.04472	0.35520
700.11603	0.35627
698.18734	0.35593
696.25864	0.35402
694.32995	0.35116
692.40125	0.34846
690.47256	0.34727
688.54386	0.34856
686.61517	0.35178
684.68648	0.35462
682.75778	0.35485
680.82909	0.35296
678.90039	0.35185
676.97170	0.35323
675.04300	0.35582
673.11431	0.35745
671.18562	0.35712
669.25692	0.35526
667.32823	0.35392
665.39953	0.35416
663.47084	0.35488
661.54214	0.35606
659.61345	0.35831
657.68476	0.36079
655.75606	0.36184
653.82737	0.36198
651.89867	0.36334
649.96998	0.36648
648.04128	0.37021
646.11259	0.37357
644.18390	0.37584
642.25520	0.37634
640.32651	0.37567
638.39781	0.37515
636.46912	0.37432
634.54042	0.37158
632.61173	0.36758
630.68304	0.36585
628.75434	0.36855
626.82565	0.37345
624.89695	0.37646
622.96826	0.37625
621.03956	0.37461
619.11087	0.37309
617.18218	0.37144
615.25348	0.36979
613.32479	0.37028
611.39609	0.37391
609.46740	0.37784
607.53870	0.37923
605.61001	0.37878
603.68132	0.37803
601.75262	0.37712
599.82393	0.37620
597.89523	0.37571
595.96654	0.37575
594.03784	0.37624
592.10915	0.37747
590.18046	0.38046
588.25176	0.38567
586.32307	0.39106
584.39437	0.39442
582.46568	0.39644
580.53698	0.39867
578.60829	0.40044
576.67960	0.40125
574.75090	0.40172
572.82221	0.40130
570.89351	0.39792
568.96482	0.39166
567.03612	0.38716
565.10743	0.39002
563.17874	0.39863
561.25004	0.40339
559.32135	0.39759
557.39265	0.38795
555.46396	0.38641
553.53526	0.39515
551.60657	0.40431
549.67788	0.40422
547.74918	0.39629
545.82049	0.38984
543.89179	0.39156
541.96310	0.39922
540.03440	0.40486
538.10571	0.40403
536.17702	0.39913
534.24832	0.39363
532.31963	0.38856
530.39093	0.38531
528.46224	0.38187
526.53354	0.36964
524.60485	0.34912
522.67616	0.34123
520.74746	0.36311
518.81877	0.40387
516.89007	0.42687
514.96138	0.42435
513.03268	0.42013
511.10399	0.42566
509.17530	0.43521
507.24660	0.45802
505.31791	0.52068
503.38921	0.59426
501.46052	0.51665
499.53182	0.38286
