3996.25459	0.02652
3994.32589	0.02654
3992.39720	0.02694
3990.46851	0.02722
3988.53981	0.02703
3986.61112	0.02650
3984.68242	0.02596
3982.75373	0.02563
3980.82503	0.02546
3978.89634	0.02538
3976.96765	0.02574
3975.03895	0.02676
3973.11026	0.02790
3971.18156	0.02823
3969.25287	0.02757
3967.32417	0.02668
3965.39548	0.02643
3963.46679	0.02706
3961.53809	0.02798
3959.60940	0.02847
3957.68070	0.02836
3955.75201	0.02794
3953.82331	0.02739
3951.89462	0.02696
3949.96593	0.02693
3948.03723	0.02707
3946.10854	0.02702
3944.17984	0.02711
3942.25115	0.02769
3940.32245	0.02830
3938.39376	0.02846
3936.46507	0.02837
3934.53637	0.02844
3932.60768	0.02872
3930.67898	0.02881
3928.75029	0.02832
3926.82159	0.02734
3924.89290	0.02633
3922.96421	0.02574
3921.03551	0.02568
3919.10682	0.02600
3917.17812	0.02654
3915.24943	0.02705
3913.32073	0.02728
3911.39204	0.02738
3909.46334	0.02770
3907.53465	0.02829
3905.60596	0.02864
3903.67726	0.02835
3901.74857	0.02764
3899.81987	0.02702
3897.89118	0.02678
3895.96248	0.02688
3894.03379	0.02710
3892.10510	0.02735
3890.17640	0.02775
3888.24771	0.02819
3886.31901	0.02827
3884.39032	0.02798
3882.46162	0.02774
3880.53293	0.02759
3878.60424	0.02725
3876.67554	0.02691
3874.74685	0.02704
3872.81815	0.02766
3870.88946	0.02821
3868.96076	0.02821
3867.03207	0.02805
3865.10338	0.02847
3863.17468	0.02977
3861.24599	0.03107
3859.31729	0.03130
3857.38860	0.03063
3855.45990	0.03032
3853.53121	0.03135
3851.60252	0.03249
3849.67382	0.03300
3847.74513	0.03340
3845.81643	0.03365
3843.88774	0.03358
3841.95904	0.03354
3840.03035	0.03382
3838.10166	0.03404
3836.17296	0.03409
3834.24427	0.03435
3832.31557	0.03477
3830.38688	0.03489
3828.45818	0.03456
3826.52949	0.03419
3824.60080	0.03430
3822.67210	0.03486
3820.74341	0.03535
3818.81471	0.03559
3816.88602	0.03586
3814.95732	0.03613
3813.02863	0.03626
3811.09994	0.03642
3809.17124	0.03684
3807.24255	0.03753
3805.31385	0.03826
3803.38516	0.03897
3801.45646	0.03940
3799.52777	0.03930
3797.59908	0.03915
3795.67038	0.03964
3793.74169	0.04067
3791.81299	0.04157
3789.88430	0.04197
3787.95560	0.04208
3786.02691	0.04232
3784.09822	0.04288
3782.16952	0.04362
3780.24083	0.04433
3778.31213	0.04496
3776.38344	0.04552
3774.45474	0.04584
3772.52605	0.04587
3770.59736	0.04601
3768.66866	0.04679
3766.73997	0.04809
3764.81127	0.04934
3762.88258	0.05016
3760.95388	0.05059
3759.02519	0.05105
3757.09650	0.05180
3755.16780	0.05275
3753.23911	0.05377
3751.31041	0.05493
3749.38172	0.05621
3747.45302	0.05745
3745.52433	0.05854
3743.59564	0.05965
3741.66694	0.06103
3739.73825	0.06255
3737.80955	0.06385
3735.88086	0.06471
3733.95216	0.06539
3732.02347	0.06641
3730.09478	0.06786
3728.16608	0.06956
3726.23739	0.07111
3724.30869	0.07225
3722.38000	0.07337
3720.45130	0.07506
3718.52261	0.07718
3716.59392	0.07930
3714.66522	0.08133
3712.73653	0.08335
3710.80783	0.08551
3708.87914	0.08802
3706.95044	0.09082
3705.02175	0.09359
3703.09305	0.09624
3701.16436	0.09893
3699.23567	0.10162
3697.30697	0.10400
3695.37828	0.10604
3693.44958	0.10812
3691.52089	0.11069
3689.59219	0.11396
3687.66350	0.11750
3685.73481	0.12064
3683.80611	0.12304
3681.87742	0.12480
3679.94872	0.12646
3678.02003	0.12882
3676.09133	0.13232
3674.16264	0.13589
3672.23395	0.13831
3670.30525	0.13996
3668.37656	0.14154
3666.44786	0.14306
3664.51917	0.14450
3662.59047	0.14617
3660.66178	0.14824
3658.73309	0.15061
3656.80439	0.15289
3654.87570	0.15453
3652.94700	0.15528
3651.01831	0.15544
3649.08961	0.15584
3647.16092	0.15700
3645.23223	0.15829
3643.30353	0.15926
3641.37484	0.16000
3639.44614	0.16096
3637.51745	0.16269
3635.58875	0.16537
3633.66006	0.16837
3631.73137	0.17042
3629.80267	0.17018
3627.87398	0.16853
3625.94528	0.16852
3624.01659	0.17064
3622.08789	0.17335
3620.15920	0.17531
3618.23051	0.17666
3616.30181	0.17830
3614.37312	0.18008
3612.44442	0.18137
3610.51573	0.18198
3608.58703	0.18218
3606.65834	0.18235
3604.72965	0.18268
3602.80095	0.18308
3600.87226	0.18373
3598.94356	0.18511
3597.01487	0.18721
3595.08617	0.18936
3593.15748	0.19108
3591.22879	0.19227
3589.30009	0.19266
3587.37140	0.19233
3585.44270	0.19249
3583.51401	0.19383
3581.58531	0.19583
3579.65662	0.19788
3577.72793	0.19982
3575.79923	0.20169
3573.87054	0.20341
3571.94184	0.20476
3570.01315	0.20590
3568.08445	0.20731
3566.15576	0.20897
3564.22707	0.21014
3562.29837	0.21058
3560.36968	0.21086
3558.44098	0.21171
3556.51229	0.21326
3554.58359	0.21511
3552.65490	0.21700
3550.72621	0.21887
3548.79751	0.22062
3546.86882	0.22266
3544.94012	0.22549
3543.01143	0.22833
3541.08273	0.23014
3539.15404	0.23094
3537.22535	0.23083
3535.29665	0.22959
3533.36796	0.22803
3531.43926	0.22802
3529.51057	0.23022
3527.58187	0.23291
3525.65318	0.23390
3523.72449	0.23309
3521.79579	0.23188
3519.86710	0.23165
3517.93840	0.23307
3516.00971	0.23559
3514.08101	0.23775
3512.15232	0.23905
3510.22362	0.24042
3508.29493	0.24199
3506.36624	0.24235
3504.43754	0.24109
3502.50885	0.24010
3500.58015	0.24082
3498.65146	0.24211
3496.72276	0.24242
3494.79407	0.24261
3492.86538	0.24433
3490.93668	0.24676
3489.00799	0.24776
3487.07929	0.24768
3485.15060	0.24856
3483.22190	0.25048
3481.29321	0.25195
3479.36452	0.25271
3477.43582	0.25366
3475.50713	0.25510
3473.57843	0.25599
3471.64974	0.25505
3469.72104	0.25315
3467.79235	0.25275
3465.86366	0.25439
3463.93496	0.25666
3462.00627	0.25907
3460.07757	0.26188
3458.14888	0.26451
3456.22018	0.26634
3454.29149	0.26712
3452.36280	0.26687
3450.43410	0.26646
3448.50541	0.26677
3446.57671	0.26692
3444.64802	0.26546
3442.71932	0.26315
3440.79063	0.26220
3438.86194	0.26329
3436.93324	0.26529
3435.00455	0.26740
3433.07585	0.26922
3431.14716	0.26962
3429.21846	0.26874
3427.28977	0.26884
3425.36108	0.27049
3423.43238	0.27145
3421.50369	0.27097
3419.57499	0.27082
3417.64630	0.27183
3415.71760	0.27347
3413.78891	0.27541
3411.86022	0.27695
3409.93152	0.27710
3408.00283	0.27608
3406.07413	0.27508
3404.14544	0.27478
3402.21674	0.27500
3400.28805	0.27544
3398.35936	0.27619
3396.43066	0.27709
3394.50197	0.27730
3392.57327	0.27638
3390.64458	0.27525
3388.71588	0.27483
3386.78719	0.27470
3384.85850	0.27468
3382.92980	0.27559
3381.00111	0.27685
3379.07241	0.27682
3377.14372	0.27637
3375.21502	0.27739
3373.28633	0.27858
3371.35764	0.27780
3369.42894	0.27647
3367.50025	0.27662
3365.57155	0.27731
3363.64286	0.27700
3361.71416	0.27568
3359.78547	0.27372
3357.85678	0.27193
3355.92808	0.27188
3353.99939	0.27362
3352.07069	0.27523
3350.14200	0.27561
3348.21330	0.27473
3346.28461	0.27215
3344.35592	0.26869
3342.42722	0.26721
3340.49853	0.26849
3338.56983	0.26991
3336.64114	0.27023
3334.71244	0.27095
3332.78375	0.27224
3330.85506	0.27237
3328.92636	0.27101
3326.99767	0.26963
3325.06897	0.26927
3323.14028	0.26987
3321.21158	0.27067
3319.28289	0.27090
3317.35420	0.27016
3315.42550	0.26848
3313.49681	0.26592
3311.56811	0.26291
3309.63942	0.26110
3307.71072	0.26246
3305.78203	0.26591
3303.85333	0.26741
3301.92464	0.26515
3299.99595	0.26172
3298.06725	0.26007
3296.13856	0.26056
3294.20986	0.26217
3292.28117	0.26348
3290.35247	0.26292
3288.42378	0.25997
3286.49509	0.25601
3284.56639	0.25384
3282.63770	0.25529
3280.70900	0.25842
3278.78031	0.25932
3276.85161	0.25748
3274.92292	0.25605
3272.99423	0.25666
3271.06553	0.25814
3269.13684	0.25968
3267.20814	0.26127
3265.27945	0.26218
3263.35075	0.26213
3261.42206	0.26223
3259.49337	0.26279
3257.56467	0.26257
3255.63598	0.26113
3253.70728	0.25959
3251.77859	0.25874
3249.84989	0.25821
3247.92120	0.25747
3245.99251	0.25646
3244.06381	0.25556
3242.13512	0.25508
3240.20642	0.25510
3238.27773	0.25574
3236.34903	0.25689
3234.42034	0.25783
3232.49165	0.25789
3230.56295	0.25683
3228.63426	0.25433
3226.70556	0.25087
3224.77687	0.24846
3222.84817	0.24827
3220.91948	0.24897
3218.99079	0.24885
3217.06209	0.24819
3215.13340	0.24813
3213.20470	0.24872
3211.27601	0.24901
3209.34731	0.24838
3207.41862	0.24714
3205.48993	0.24580
3203.56123	0.24453
3201.63254	0.24353
3199.70384	0.24308
3197.77515	0.24281
3195.84645	0.24189
3193.91776	0.24007
3191.98907	0.23780
3190.06037	0.23580
3188.13168	0.23451
3186.20298	0.23379
3184.27429	0.23309
3182.34559	0.23223
3180.41690	0.23137
3178.48821	0.23050
3176.55951	0.22968
3174.63082	0.22896
3172.70212	0.22792
3170.77343	0.22619
3168.84473	0.22415
3166.91604	0.22236
3164.98735	0.22120
3163.05865	0.22074
3161.12996	0.22049
3159.20126	0.21980
3157.27257	0.21893
3155.34387	0.21832
3153.41518	0.21732
3151.48649	0.21531
3149.55779	0.21319
3147.62910	0.21226
3145.70040	0.21223
3143.77171	0.21184
3141.84301	0.21062
3139.91432	0.20900
3137.98563	0.20732
3136.05693	0.20565
3134.12824	0.20408
3132.19954	0.20267
3130.27085	0.20158
3128.34215	0.20106
3126.41346	0.20107
3124.48477	0.20124
3122.55607	0.20124
3120.62738	0.20075
3118.69868	0.19959
3116.76999	0.19798
3114.84129	0.19631
3112.91260	0.19474
3110.98390	0.19332
3109.05521	0.19233
3107.12652	0.19205
3105.19782	0.19204
3103.26913	0.19140
3101.34043	0.19013
3099.41174	0.18916
3097.48304	0.18878
3095.55435	0.18825
3093.62566	0.18712
3091.69696	0.18591
3089.76827	0.18529
3087.83957	0.18517
3085.91088	0.18508
3083.98218	0.18471
3082.05349	0.18416
3080.12480	0.18370
3078.19610	0.18350
3076.26741	0.18340
3074.33871	0.18295
3072.41002	0.18182
3070.48132	0.18035
3068.55263	0.17915
3066.62394	0.17839
3064.69524	0.17764
3062.76655	0.17667
3060.83785	0.17578
3058.90916	0.17519
3056.98046	0.17468
3055.05177	0.17398
3053.12308	0.17322
3051.19438	0.17273
3049.26569	0.17263
3047.33699	0.17274
3045.40830	0.17268
3043.47960	0.17219
3041.55091	0.17140
3039.62222	0.17067
3037.69352	0.17011
3035.76483	0.16947
3033.83613	0.16869
3031.90744	0.16808
3029.97874	0.16779
3028.05005	0.16754
3026.12136	0.16716
3024.19266	0.16687
3022.26397	0.16690
3020.33527	0.16729
3018.40658	0.16808
3016.47788	0.16915
3014.54919	0.17005
3012.62050	0.17043
3010.69180	0.17040
3008.76311	0.17031
3006.83441	0.17034
3004.90572	0.17048
3002.97702	0.17055
3001.04833	0.17045
2999.11964	0.17031
2997.19094	0.17037
2995.26225	0.17088
2993.33355	0.17222
2991.40486	0.17461
2989.47616	0.17773
2987.54747	0.18100
2985.61878	0.18413
2983.69008	0.18706
2981.76139	0.18960
2979.83269	0.19149
2977.90400	0.19267
2975.97530	0.19328
2974.04661	0.19358
2972.11792	0.19376
2970.18922	0.19381
2968.26053	0.19376
2966.33183	0.19395
2964.40314	0.19451
2962.47444	0.19503
2960.54575	0.19557
2958.61706	0.19667
2956.68836	0.19798
2954.75967	0.19829
2952.83097	0.19710
2950.90228	0.19503
2948.97358	0.19331
2947.04489	0.19331
2945.11620	0.19554
2943.18750	0.19904
2941.25881	0.20250
2939.33011	0.20569
2937.40142	0.20922
2935.47272	0.21350
2933.54403	0.21817
2931.61534	0.22211
2929.68664	0.22439
2927.75795	0.22515
2925.82925	0.22493
2923.90056	0.22303
2921.97186	0.21792
2920.04317	0.20986
2918.11448	0.20158
2916.18578	0.19541
2914.25709	0.19099
2912.32839	0.18672
2910.39970	0.18214
2908.47100	0.17794
2906.54231	0.17438
2904.61361	0.17109
2902.68492	0.16786
2900.75623	0.16479
2898.82753	0.16179
2896.89884	0.15857
2894.97014	0.15505
2893.04145	0.15151
2891.11275	0.14829
2889.18406	0.14541
2887.25537	0.14285
2885.32667	0.14078
2883.39798	0.13922
2881.46928	0.13795
2879.54059	0.13674
2877.61189	0.13560
2875.68320	0.13473
2873.75451	0.13423
2871.82581	0.13385
2869.89712	0.13322
2867.96842	0.13243
2866.03973	0.13201
2864.11103	0.13254
2862.18234	0.13408
2860.25365	0.13589
2858.32495	0.13673
2856.39626	0.13580
2854.46756	0.13321
2852.53887	0.12945
2850.61017	0.12472
2848.68148	0.11904
2846.75279	0.11281
2844.82409	0.10677
2842.89540	0.10149
2840.96670	0.09718
2839.03801	0.09379
2837.10931	0.09095
2835.18062	0.08833
2833.25193	0.08587
2831.32323	0.08364
2829.39454	0.08158
2827.46584	0.07959
2825.53715	0.07775
2823.60845	0.07621
2821.67976	0.07494
2819.75107	0.07373
2817.82237	0.07242
2815.89368	0.07104
2813.96498	0.06965
2812.03629	0.06831
2810.10759	0.06702
2808.17890	0.06581
2806.25021	0.06469
2804.32151	0.06364
2802.39282	0.06256
2800.46412	0.06141
2798.53543	0.06028
2796.60673	0.05927
2794.67804	0.05839
2792.74935	0.05759
2790.82065	0.05679
2788.89196	0.05593
2786.96326	0.05502
2785.03457	0.05410
2783.10587	0.05318
2781.17718	0.05225
2779.24849	0.05134
2777.31979	0.05057
2775.39110	0.04996
2773.46240	0.04940
2771.53371	0.04881
2769.60501	0.04822
2767.67632	0.04767
2765.74763	0.04710
2763.81893	0.04654
2761.89024	0.04603
2759.96154	0.04550
2758.03285	0.04488
2756.10415	0.04421
2754.17546	0.04355
2752.24677	0.04292
2750.31807	0.04240
2748.38938	0.04200
2746.46068	0.04162
2744.53199	0.04118
2742.60329	0.04074
2740.67460	0.04035
2738.74591	0.04000
2736.81721	0.03962
2734.88852	0.03915
2732.95982	0.03856
2731.03113	0.03794
2729.10243	0.03739
2727.17374	0.03685
2725.24505	0.03623
2723.31635	0.03559
2721.38766	0.03501
2719.45896	0.03449
2717.53027	0.03402
2715.60157	0.03364
2713.67288	0.03333
2711.74419	0.03297
2709.81549	0.03252
2707.88680	0.03205
2705.95810	0.03165
2704.02941	0.03135
2702.10071	0.03105
2700.17202	0.03065
2698.24332	0.03015
2696.31463	0.02971
2694.38594	0.02939
2692.45724	0.02919
2690.52855	0.02901
2688.59985	0.02878
2686.67116	0.02845
2684.74246	0.02804
2682.81377	0.02763
2680.88508	0.02727
2678.95638	0.02693
2677.02769	0.02654
2675.09899	0.02615
2673.17030	0.02583
2671.24160	0.02562
2669.31291	0.02545
2667.38422	0.02527
2665.45552	0.02508
2663.52683	0.02490
2661.59813	0.02474
2659.66944	0.02459
2657.74074	0.02446
2655.81205	0.02434
2653.88336	0.02416
2651.95466	0.02389
2650.02597	0.02360
2648.09727	0.02334
2646.16858	0.02313
2644.23988	0.02297
2642.31119	0.02288
2640.38250	0.02280
2638.45380	0.02268
2636.52511	0.02254
2634.59641	0.02246
2632.66772	0.02244
2630.73902	0.02243
2628.81033	0.02239
2626.88164	0.02231
2624.95294	0.02219
2623.02425	0.02207
2621.09555	0.02196
2619.16686	0.02189
2617.23816	0.02180
2615.30947	0.02165
2613.38078	0.02153
2611.45208	0.02152
2609.52339	0.02159
2607.59469	0.02167
2605.66600	0.02171
2603.73730	0.02168
2601.80861	0.02161
2599.87992	0.02156
2597.95122	0.02158
2596.02253	0.02168
2594.09383	0.02178
2592.16514	0.02186
2590.23644	0.02192
2588.30775	0.02198
2586.37906	0.02205
2584.45036	0.02211
2582.52167	0.02216
2580.59297	0.02219
2578.66428	0.02229
2576.73558	0.02246
2574.80689	0.02263
2572.87820	0.02278
2570.94950	0.02293
2569.02081	0.02310
2567.09211	0.02323
2565.16342	0.02326
2563.23472	0.02326
2561.30603	0.02333
2559.37734	0.02351
2557.44864	0.02377
2555.51995	0.02404
2553.59125	0.02428
2551.66256	0.02448
2549.73386	0.02463
2547.80517	0.02480
2545.87648	0.02503
2543.94778	0.02534
2542.01909	0.02563
2540.09039	0.02584
2538.16170	0.02594
2536.23300	0.02594
2534.30431	0.02591
2532.37562	0.02596
2530.44692	0.02612
2528.51823	0.02634
2526.58953	0.02657
2524.66084	0.02679
2522.73214	0.02700
2520.80345	0.02715
2518.87476	0.02728
2516.94606	0.02744
2515.01737	0.02766
2513.08867	0.02790
2511.15998	0.02814
2509.23128	0.02836
2507.30259	0.02862
2505.37389	0.02890
2503.44520	0.02914
2501.51651	0.02930
2499.58781	0.02945
2497.65912	0.02967
2495.73042	0.02992
2493.80173	0.03008
2491.87303	0.03011
2489.94434	0.03010
2488.01565	0.03016
2486.08695	0.03032
2484.15826	0.03056
2482.22956	0.03082
2480.30087	0.03106
2478.37217	0.03129
2476.44348	0.03153
2474.51479	0.03179
2472.58609	0.03201
2470.65740	0.03215
2468.72870	0.03225
2466.80001	0.03239
2464.87131	0.03262
2462.94262	0.03287
2461.01393	0.03312
2459.08523	0.03338
2457.15654	0.03367
2455.22784	0.03396
2453.29915	0.03421
2451.37045	0.03439
2449.44176	0.03452
2447.51307	0.03465
2445.58437	0.03486
2443.65568	0.03519
2441.72698	0.03555
2439.79829	0.03584
2437.86959	0.03606
2435.94090	0.03630
2434.01221	0.03664
2432.08351	0.03703
2430.15482	0.03736
2428.22612	0.03760
2426.29743	0.03778
2424.36873	0.03803
2422.44004	0.03835
2420.51135	0.03868
2418.58265	0.03899
2416.65396	0.03931
2414.72526	0.03964
2412.79657	0.03995
2410.86787	0.04021
2408.93918	0.04044
2407.01049	0.04066
2405.08179	0.04092
2403.15310	0.04127
2401.22440	0.04164
2399.29571	0.04197
2397.36701	0.04225
2395.43832	0.04255
2393.50963	0.04286
2391.58093	0.04317
2389.65224	0.04349
2387.72354	0.04380
2385.79485	0.04410
2383.86615	0.04439
2381.93746	0.04470
2380.00877	0.04500
2378.08007	0.04529
2376.15138	0.04559
2374.22268	0.04589
2372.29399	0.04620
2370.36529	0.04670
2368.43660	0.04771
2366.50791	0.04918
2364.57921	0.05035
2362.65052	0.05037
2360.72182	0.04948
2358.79313	0.04885
2356.86443	0.04912
2354.93574	0.04978
2353.00705	0.05033
2351.07835	0.05084
2349.14966	0.05141
2347.22096	0.05197
2345.29227	0.05241
2343.36357	0.05279
2341.43488	0.05327
2339.50619	0.05378
2337.57749	0.05414
2335.64880	0.05435
2333.72010	0.05443
2331.79141	0.05437
2329.86271	0.05427
2327.93402	0.05432
2326.00533	0.05462
2324.07663	0.05518
2322.14794	0.05584
2320.21924	0.05648
2318.29055	0.05704
2316.36185	0.05747
2314.43316	0.05774
2312.50447	0.05790
2310.57577	0.05804
2308.64708	0.05826
2306.71838	0.05856
2304.78969	0.05890
2302.86099	0.05928
2300.93230	0.05968
2299.00360	0.06006
2297.07491	0.06039
2295.14622	0.06073
2293.21752	0.06115
2291.28883	0.06164
2289.36013	0.06209
2287.43144	0.06248
2285.50274	0.06284
2283.57405	0.06319
2281.64536	0.06356
2279.71666	0.06393
2277.78797	0.06434
2275.85927	0.06479
2273.93058	0.06525
2272.00188	0.06570
2270.07319	0.06615
2268.14450	0.06660
2266.21580	0.06704
2264.28711	0.06747
2262.35841	0.06794
2260.42972	0.06845
2258.50102	0.06893
2256.57233	0.06933
2254.64364	0.06970
2252.71494	0.07009
2250.78625	0.07046
2248.85755	0.07074
2246.92886	0.07097
2245.00016	0.07122
2243.07147	0.07155
2241.14278	0.07195
2239.21408	0.07235
2237.28539	0.07275
2235.35669	0.07313
2233.42800	0.07355
2231.49930	0.07397
2229.57061	0.07438
2227.64192	0.07474
2225.71322	0.07508
2223.78453	0.07540
2221.85583	0.07574
2219.92714	0.07616
2217.99844	0.07662
2216.06975	0.07702
2214.14106	0.07730
2212.21236	0.07752
2210.28367	0.07779
2208.35497	0.07813
2206.42628	0.07850
2204.49758	0.07884
2202.56889	0.07917
2200.64020	0.07952
2198.71150	0.07990
2196.78281	0.08027
2194.85411	0.08063
2192.92542	0.08094
2190.99672	0.08119
2189.06803	0.08142
2187.13934	0.08171
2185.21064	0.08207
2183.28195	0.08241
2181.35325	0.08266
2179.42456	0.08280
2177.49586	0.08294
2175.56717	0.08317
2173.63848	0.08348
2171.70978	0.08377
2169.78109	0.08394
2167.85239	0.08404
2165.92370	0.08416
2163.99500	0.08434
2162.06631	0.08455
2160.13762	0.08470
2158.20892	0.08478
2156.28023	0.08482
2154.35153	0.08487
2152.42284	0.08498
2150.49414	0.08520
2148.56545	0.08540
2146.63676	0.08547
2144.70806	0.08545
2142.77937	0.08545
2140.85067	0.08547
2138.92198	0.08549
2136.99328	0.08554
2135.06459	0.08560
2133.13590	0.08563
2131.20720	0.08562
2129.27851	0.08562
2127.34981	0.08560
2125.42112	0.08550
2123.49242	0.08538
2121.56373	0.08532
2119.63504	0.08527
2117.70634	0.08513
2115.77765	0.08490
2113.84895	0.08469
2111.92026	0.08456
2109.99156	0.08444
2108.06287	0.08424
2106.13417	0.08399
2104.20548	0.08377
2102.27679	0.08355
2100.34809	0.08331
2098.41940	0.08304
2096.49070	0.08279
2094.56201	0.08259
2092.63331	0.08244
2090.70462	0.08228
2088.77593	0.08207
2086.84723	0.08177
2084.91854	0.08142
2082.98984	0.08112
2081.06115	0.08094
2079.13245	0.08080
2077.20376	0.08056
2075.27507	0.08018
2073.34637	0.07972
2071.41768	0.07927
2069.48898	0.07887
2067.56029	0.07847
2065.63159	0.07805
2063.70290	0.07768
2061.77421	0.07738
2059.84551	0.07708
2057.91682	0.07666
2055.98812	0.07616
2054.05943	0.07574
2052.13073	0.07541
2050.20204	0.07506
2048.27335	0.07464
2046.34465	0.07422
2044.41596	0.07384
2042.48726	0.07345
2040.55857	0.07302
2038.62987	0.07256
2036.70118	0.07214
2034.77249	0.07175
2032.84379	0.07132
2030.91510	0.07080
2028.98640	0.07026
2027.05771	0.06981
2025.12901	0.06944
2023.20032	0.06908
2021.27163	0.06865
2019.34293	0.06815
2017.41424	0.06762
2015.48554	0.06709
2013.55685	0.06658
2011.62815	0.06612
2009.69946	0.06572
2007.77077	0.06536
2005.84207	0.06505
2003.91338	0.06476
2001.98468	0.06441
2000.05599	0.06390
1998.12729	0.06329
1996.19860	0.06271
1994.26991	0.06223
1992.34121	0.06183
1990.41252	0.06146
1988.48382	0.06105
1986.55513	0.06060
1984.62643	0.06017
1982.69774	0.05979
1980.76905	0.05941
1978.84035	0.05902
1976.91166	0.05863
1974.98296	0.05824
1973.05427	0.05785
1971.12557	0.05748
1969.19688	0.05713
1967.26819	0.05678
1965.33949	0.05644
1963.41080	0.05611
1961.48210	0.05576
1959.55341	0.05541
1957.62471	0.05512
1955.69602	0.05489
1953.76733	0.05470
1951.83863	0.05449
1949.90994	0.05425
1947.98124	0.05397
1946.05255	0.05370
1944.12385	0.05348
1942.19516	0.05329
1940.26647	0.05309
1938.33777	0.05294
1936.40908	0.05287
1934.48038	0.05282
1932.55169	0.05277
1930.62299	0.05271
1928.69430	0.05262
1926.76561	0.05246
1924.83691	0.05228
1922.90822	0.05218
1920.97952	0.05219
1919.05083	0.05219
1917.12213	0.05207
1915.19344	0.05184
1913.26475	0.05158
1911.33605	0.05133
1909.40736	0.05109
1907.47866	0.05087
1905.54997	0.05072
1903.62127	0.05063
1901.69258	0.05059
1899.76388	0.05052
1897.83519	0.05035
1895.90650	0.05009
1893.97780	0.04991
1892.04911	0.04991
1890.12041	0.04998
1888.19172	0.04999
1886.26302	0.05000
1884.33433	0.05007
1882.40564	0.05016
1880.47694	0.05020
1878.54825	0.05018
1876.61955	0.05015
1874.69086	0.05017
1872.76216	0.05026
1870.83347	0.05040
1868.90478	0.05060
1866.97608	0.05084
1865.04739	0.05107
1863.11869	0.05125
1861.19000	0.05139
1859.26130	0.05156
1857.33261	0.05172
1855.40392	0.05180
1853.47522	0.05183
1851.54653	0.05197
1849.61783	0.05226
1847.68914	0.05263
1845.76044	0.05300
1843.83175	0.05329
1841.90306	0.05354
1839.97436	0.05379
1838.04567	0.05402
1836.11697	0.05428
1834.18828	0.05464
1832.25958	0.05515
1830.33089	0.05572
1828.40220	0.05617
1826.47350	0.05646
1824.54481	0.05676
1822.61611	0.05712
1820.68742	0.05749
1818.75872	0.05792
1816.83003	0.05839
1814.90134	0.05884
1812.97264	0.05925
1811.04395	0.05972
1809.11525	0.06037
1807.18656	0.06122
1805.25786	0.06213
1803.32917	0.06301
1801.40048	0.06381
1799.47178	0.06448
1797.54309	0.06506
1795.61439	0.06566
1793.68570	0.06635
1791.75700	0.06720
1789.82831	0.06821
1787.89962	0.06925
1785.97092	0.07030
1784.04223	0.07142
1782.11353	0.07261
1780.18484	0.07389
1778.25614	0.07517
1776.32745	0.07641
1774.39876	0.07779
1772.47006	0.07940
1770.54137	0.08114
1768.61267	0.08306
1766.68398	0.08532
1764.75528	0.08807
1762.82659	0.09160
1760.89790	0.09611
1758.96920	0.10152
1757.04051	0.10780
1755.11181	0.11464
1753.18312	0.12180
1751.25442	0.12985
1749.32573	0.13867
1747.39704	0.14567
1745.46834	0.14952
1743.53965	0.15150
1741.61095	0.15258
1739.68226	0.15289
1737.75356	0.15254
1735.82487	0.15185
1733.89618	0.15119
1731.96748	0.15091
1730.03879	0.15116
1728.11009	0.15167
1726.18140	0.15212
1724.25270	0.15247
1722.32401	0.15276
1720.39532	0.15296
1718.46662	0.15318
1716.53793	0.15357
1714.60923	0.15403
1712.68054	0.15459
1710.75184	0.15533
1708.82315	0.15630
1706.89446	0.15748
1704.96576	0.15883
1703.03707	0.16050
1701.10837	0.16300
1699.17968	0.16631
1697.25098	0.16933
1695.32229	0.17147
1693.39359	0.17307
1691.46490	0.17454
1689.53621	0.17616
1687.60751	0.17805
1685.67882	0.18053
1683.75012	0.18373
1681.82143	0.18639
1679.89273	0.18808
1677.96404	0.18961
1676.03535	0.19128
1674.10665	0.19284
1672.17796	0.19418
1670.24926	0.19553
1668.32057	0.19702
1666.39187	0.19843
1664.46318	0.19980
1662.53449	0.20160
1660.60579	0.20375
1658.67710	0.20587
1656.74840	0.20810
1654.81971	0.20957
1652.89101	0.20854
1650.96232	0.20749
1649.03363	0.20817
1647.10493	0.20806
1645.17624	0.20601
1643.24754	0.20387
1641.31885	0.20267
1639.39015	0.20182
1637.46146	0.20026
1635.53277	0.19832
1633.60407	0.19792
1631.67538	0.19876
1629.74668	0.19946
1627.81799	0.19947
1625.88929	0.19863
1623.96060	0.19685
1622.03191	0.19459
1620.10321	0.19222
1618.17452	0.18915
1616.24582	0.18482
1614.31713	0.18044
1612.38843	0.17707
1610.45974	0.17417
1608.53105	0.17100
1606.60235	0.16761
1604.67366	0.16441
1602.74496	0.16166
1600.81627	0.15951
1598.88757	0.15800
1596.95888	0.15684
1595.03019	0.15558
1593.10149	0.15399
1591.17280	0.15221
1589.24410	0.15060
1587.31541	0.14948
1585.38671	0.14896
1583.45802	0.14896
1581.52933	0.14936
1579.60063	0.15006
1577.67194	0.15097
1575.74324	0.15190
1573.81455	0.15262
1571.88585	0.15331
1569.95716	0.15395
1568.02847	0.15425
1566.09977	0.15422
1564.17108	0.15439
1562.24238	0.15529
1560.31369	0.15730
1558.38499	0.15947
1556.45630	0.15975
1554.52761	0.15892
1552.59891	0.15796
1550.67022	0.15691
1548.74152	0.15573
1546.81283	0.15450
1544.88413	0.15364
1542.95544	0.15299
1541.02675	0.15044
1539.09805	0.14609
1537.16936	0.14344
1535.24066	0.14252
1533.31197	0.14212
1531.38327	0.14203
1529.45458	0.14230
1527.52589	0.14230
1525.59719	0.14105
1523.66850	0.13831
1521.73980	0.13502
1519.81111	0.13228
1517.88241	0.13025
1515.95372	0.12863
1514.02503	0.12743
1512.09633	0.12667
1510.16764	0.12618
1508.23894	0.12552
1506.31025	0.12469
1504.38155	0.12429
1502.45286	0.12427
1500.52416	0.12431
1498.59547	0.12429
1496.66678	0.12436
1494.73808	0.12470
1492.80939	0.12531
1490.88069	0.12609
1488.95200	0.12694
1487.02330	0.12781
1485.09461	0.12869
1483.16592	0.12953
1481.23722	0.13028
1479.30853	0.13099
1477.37983	0.13189
1475.45114	0.13366
1473.52244	0.13728
1471.59375	0.14251
1469.66506	0.14742
1467.73636	0.15106
1465.80767	0.15361
1463.87897	0.15531
1461.95028	0.15670
1460.02158	0.15822
1458.09289	0.15960
1456.16420	0.15993
1454.23550	0.15936
1452.30681	0.15847
1450.37811	0.15717
1448.44942	0.15529
1446.52072	0.15308
1444.59203	0.15088
1442.66334	0.14898
1440.73464	0.14758
1438.80595	0.14680
1436.87725	0.14651
1434.94856	0.14627
1433.01986	0.14592
1431.09117	0.14576
1429.16248	0.14613
1427.23378	0.14701
1425.30509	0.14805
1423.37639	0.14885
1421.44770	0.14929
1419.51900	0.14972
1417.59031	0.15037
1415.66162	0.15077
1413.73292	0.15067
1411.80423	0.15035
1409.87553	0.15013
1407.94684	0.15008
1406.01814	0.14999
1404.08945	0.14965
1402.16076	0.14904
1400.23206	0.14833
1398.30337	0.14785
1396.37467	0.14768
1394.44598	0.14744
1392.51728	0.14698
1390.58859	0.14672
1388.65990	0.14703
1386.73120	0.14775
1384.80251	0.14834
1382.87381	0.14854
1380.94512	0.14838
1379.01642	0.14783
1377.08773	0.14665
1375.15904	0.14455
1373.23034	0.14178
1371.30165	0.13903
1369.37295	0.13678
1367.44426	0.13520
1365.51556	0.13422
1363.58687	0.13358
1361.65818	0.13303
1359.72948	0.13249
1357.80079	0.13201
1355.87209	0.13166
1353.94340	0.13145
1352.01470	0.13142
1350.08601	0.13161
1348.15732	0.13195
1346.22862	0.13239
1344.29993	0.13288
1342.37123	0.13331
1340.44254	0.13358
1338.51384	0.13369
1336.58515	0.13371
1334.65646	0.13370
1332.72776	0.13369
1330.79907	0.13377
1328.87037	0.13401
1326.94168	0.13443
1325.01298	0.13493
1323.08429	0.13537
1321.15560	0.13560
1319.22690	0.13551
1317.29821	0.13512
1315.36951	0.13463
1313.44082	0.13426
1311.51212	0.13407
1309.58343	0.13391
1307.65474	0.13356
1305.72604	0.13297
1303.79735	0.13232
1301.86865	0.13184
1299.93996	0.13161
1298.01126	0.13154
1296.08257	0.13155
1294.15387	0.13160
1292.22518	0.13167
1290.29649	0.13180
1288.36779	0.13206
1286.43910	0.13243
1284.51040	0.13297
1282.58171	0.13380
1280.65301	0.13479
1278.72432	0.13566
1276.79563	0.13623
1274.86693	0.13643
1272.93824	0.13633
1271.00954	0.13603
1269.08085	0.13557
1267.15215	0.13501
1265.22346	0.13445
1263.29477	0.13403
1261.36607	0.13374
1259.43738	0.13346
1257.50868	0.13304
1255.57999	0.13261
1253.65129	0.13247
1251.72260	0.13282
1249.79391	0.13346
1247.86521	0.13392
1245.93652	0.13402
1244.00782	0.13385
1242.07913	0.13347
1240.15043	0.13296
1238.22174	0.13256
1236.29305	0.13239
1234.36435	0.13220
1232.43566	0.13186
1230.50696	0.13153
1228.57827	0.13127
1226.64957	0.13098
1224.72088	0.13070
1222.79219	0.13061
1220.86349	0.13061
1218.93480	0.13037
1217.00610	0.12982
1215.07741	0.12924
1213.14871	0.12890
1211.22002	0.12886
1209.29133	0.12903
1207.36263	0.12927
1205.43394	0.12947
1203.50524	0.12959
1201.57655	0.12973
1199.64785	0.13001
1197.71916	0.13052
1195.79047	0.13125
1193.86177	0.13204
1191.93308	0.13274
1190.00438	0.13327
1188.07569	0.13363
1186.14699	0.13399
1184.21830	0.13449
1182.28961	0.13512
1180.36091	0.13574
1178.43222	0.13624
1176.50352	0.13664
1174.57483	0.13704
1172.64613	0.13755
1170.71744	0.13815
1168.78875	0.13881
1166.86005	0.13947
1164.93136	0.13996
1163.00266	0.14011
1161.07397	0.13998
1159.14527	0.13972
1157.21658	0.13924
1155.28789	0.13836
1153.35919	0.13730
1151.43050	0.13654
1149.50180	0.13620
1147.57311	0.13591
1145.64441	0.13532
1143.71572	0.13445
1141.78703	0.13353
1139.85833	0.13264
1137.92964	0.13167
1136.00094	0.13063
1134.07225	0.12971
1132.14355	0.12911
1130.21486	0.12896
1128.28617	0.12931
1126.35747	0.13003
1124.42878	0.13076
1122.50008	0.13114
1120.57139	0.13116
1118.64269	0.13111
1116.71400	0.13128
1114.78531	0.13176
1112.85661	0.13255
1110.92792	0.13355
1108.99922	0.13464
1107.07053	0.13597
1105.14183	0.13799
1103.21314	0.14098
1101.28444	0.14483
1099.35575	0.14948
1097.42706	0.15498
1095.49836	0.16113
1093.56967	0.16731
1091.64097	0.17283
1089.71228	0.17725
1087.78358	0.18020
1085.85489	0.18120
1083.92620	0.18018
1081.99750	0.17757
1080.06881	0.17374
1078.14011	0.16898
1076.21142	0.16395
1074.28272	0.15948
1072.35403	0.15591
1070.42534	0.15333
1068.49664	0.15181
1066.56795	0.15124
1064.63925	0.15136
1062.71056	0.15253
1060.78186	0.15589
1058.85317	0.16262
1056.92448	0.17322
1054.99578	0.18737
1053.06709	0.20414
1051.13839	0.22226
1049.20970	0.23968
1047.28100	0.25312
1045.35231	0.25904
1043.42362	0.25572
1041.49492	0.24409
1039.56623	0.22720
1037.63753	0.20895
1035.70884	0.19228
1033.78014	0.17829
1031.85145	0.16710
1029.92276	0.15862
1027.99406	0.15237
1026.06537	0.14753
1024.13667	0.14352
1022.20798	0.14024
1020.27928	0.13765
1018.35059	0.13557
1016.42190	0.13392
1014.49320	0.13280
1012.56451	0.13215
1010.63581	0.13169
1008.70712	0.13132
1006.77842	0.13121
1004.84973	0.13132
1002.92104	0.13143
1000.99234	0.13137
999.06365	0.13117
997.13495	0.13099
995.20626	0.13108
993.27756	0.13154
991.34887	0.13213
989.42018	0.13252
987.49148	0.13259
985.56279	0.13248
983.63409	0.13249
981.70540	0.13278
979.77670	0.13331
977.84801	0.13399
975.91932	0.13469
973.99062	0.13518
972.06193	0.13535
970.13323	0.13534
968.20454	0.13541
966.27584	0.13566
964.34715	0.13598
962.41846	0.13625
960.48976	0.13657
958.56107	0.13718
956.63237	0.13808
954.70368	0.13895
952.77498	0.13956
950.84629	0.14000
948.91760	0.14039
946.98890	0.14076
945.06021	0.14126
943.13151	0.14202
941.20282	0.14288
939.27412	0.14360
937.34543	0.14420
935.41674	0.14483
933.48804	0.14550
931.55935	0.14625
929.63065	0.14712
927.70196	0.14804
925.77326	0.14891
923.84457	0.14982
921.91588	0.15086
919.98718	0.15207
918.05849	0.15339
916.12979	0.15473
914.20110	0.15609
912.27240	0.15748
910.34371	0.15882
908.41502	0.16004
906.48632	0.16132
904.55763	0.16286
902.62893	0.16456
900.70024	0.16617
898.77154	0.16762
896.84285	0.16919
894.91415	0.17127
892.98546	0.17414
891.05677	0.17780
889.12807	0.18230
887.19938	0.18795
885.27068	0.19507
883.34199	0.20329
881.41329	0.21130
879.48460	0.21713
877.55591	0.21908
875.62721	0.21690
873.69852	0.21205
871.76982	0.20653
869.84113	0.20170
867.91243	0.19818
865.98374	0.19610
864.05505	0.19516
862.12635	0.19479
860.19766	0.19466
858.26896	0.19479
856.34027	0.19525
854.41157	0.19590
852.48288	0.19664
850.55419	0.19764
848.62549	0.19906
846.69680	0.20073
844.76810	0.20227
842.83941	0.20349
840.91071	0.20454
838.98202	0.20568
837.05333	0.20689
835.12463	0.20797
833.19594	0.20888
831.26724	0.20979
829.33855	0.21087
827.40985	0.21231
825.48116	0.21409
823.55247	0.21581
821.62377	0.21709
819.69508	0.21802
817.76638	0.21909
815.83769	0.22064
813.90899	0.22263
811.98030	0.22470
810.05161	0.22648
808.12291	0.22779
806.19422	0.22870
804.26552	0.22955
802.33683	0.23057
800.40813	0.23156
798.47944	0.23240
796.55075	0.23333
794.62205	0.23451
792.69336	0.23581
790.76466	0.23729
788.83597	0.23917
786.90727	0.24127
784.97858	0.24298
783.04989	0.24405
781.12119	0.24478
779.19250	0.24556
777.26380	0.24653
775.33511	0.24775
773.40641	0.24915
771.47772	0.25043
769.54903	0.25149
767.62033	0.25274
765.69164	0.25454
763.76294	0.25652
761.83425	0.25807
759.90555	0.25921
757.97686	0.26026
756.04817	0.26106
754.11947	0.26131
752.19078	0.26143
750.26208	0.26237
748.33339	0.26447
746.40469	0.26715
744.47600	0.26957
742.54731	0.27127
740.61861	0.27223
738.68992	0.27262
736.76122	0.27283
734.83253	0.27357
732.90383	0.27532
730.97514	0.27768
729.04645	0.27981
727.11775	0.28136
725.18906	0.28227
723.26036	0.28259
721.33167	0.28271
719.40297	0.28305
717.47428	0.28341
715.54559	0.28353
713.61689	0.28385
711.68820	0.28490
709.75950	0.28664
707.83081	0.28873
705.90211	0.29077
703.97342	0.29223
702.04472	0.29299
700.11603	0.29341
698.18734	0.29352
696.25864	0.29300
694.32995	0.29212
692.40125	0.29130
690.47256	0.29028
688.54386	0.28943
686.61517	0.29022
684.68648	0.29280
682.75778	0.29513
680.82909	0.29579
678.90039	0.29568
676.97170	0.29615
675.04300	0.29759
673.11431	0.29996
671.18562	0.30333
669.25692	0.30652
667.32823	0.30609
665.39953	0.30270
663.47084	0.30016
661.54214	0.29924
659.61345	0.29852
657.68476	0.29720
655.75606	0.29676
653.82737	0.29824
651.89867	0.30018
649.96998	0.30116
648.04128	0.30180
646.11259	0.30346
644.18390	0.30665
642.25520	0.31066
640.32651	0.31371
638.39781	0.31439
636.46912	0.31334
634.54042	0.31210
632.61173	0.31115
630.68304	0.31093
628.75434	0.31230
626.82565	0.31461
624.89695	0.31584
622.96826	0.31596
621.03956	0.31670
619.11087	0.31834
617.18218	0.31949
615.25348	0.31897
613.32479	0.31604
611.39609	0.31122
609.46740	0.30700
607.53870	0.30526
605.61001	0.30597
603.68132	0.30950
601.75262	0.31586
599.82393	0.32236
597.89523	0.32575
595.96654	0.32514
594.03784	0.32014
592.10915	0.31171
590.18046	0.30517
588.25176	0.30500
586.32307	0.30893
584.39437	0.31269
582.46568	0.31601
580.53698	0.32041
578.60829	0.32525
576.67960	0.32933
574.75090	0.33299
572.82221	0.33614
570.89351	0.33621
568.96482	0.33232
567.03612	0.32840
565.10743	0.32777
563.17874	0.32793
561.25004	0.32614
559.32135	0.32383
557.39265	0.32207
555.46396	0.32030
553.53526	0.32196
551.60657	0.33119
549.67788	0.34319
547.74918	0.34813
545.82049	0.34526
543.89179	0.34108
541.96310	0.33706
540.03440	0.33250
538.10571	0.33248
536.17702	0.34206
534.24832	0.35550
532.31963	0.35903
530.39093	0.34665
528.46224	0.32737
526.53354	0.31439
524.60485	0.31354
522.67616	0.32062
520.74746	0.32898
518.81877	0.34044
516.89007	0.36321
514.96138	0.38995
513.03268	0.39468
511.10399	0.37718
509.17530	0.36732
507.24660	0.37132
505.31791	0.35832
503.38921	0.32929
501.46052	0.32262
499.53182	0.33796
